162.489,3.534375,
162.49,3.55625,
162.491,3.55,
162.492,3.54375,
162.493,3.546875,
162.494,3.546875,
162.495,3.54375,
162.496,3.540625,
162.497,3.553125,
162.498,3.540625,
162.499,3.5375,
162.5,3.54375,
162.501,3.55,
162.502,3.55,
162.503,3.55625,
162.504,3.5625,
162.505,3.5625,
162.506,3.553125,
162.507,3.553125,
162.508,3.5625,
162.509,3.559375,
162.51,3.553125,
162.511,3.559375,
162.512,3.55625,
162.513,3.546875,
162.514,3.528125,
162.515,3.546875,
162.516,3.55,
162.517,3.553125,
162.518,3.559375,
162.519,3.56875,
162.52,3.5625,
162.521,3.56875,
162.522,3.571875,
162.523,3.5625,
162.524,3.55625,
162.525,3.55625,
162.526,3.565625,
162.527,3.565625,
162.528,3.565625,
162.529,3.565625,
162.53,3.553125,
162.531,3.55,
162.532,3.55625,
162.533,3.5625,
162.534,3.5625,
162.535,3.559375,
162.536,3.565625,
162.537,3.5625,
162.538,3.565625,
162.539,3.5625,
162.54,3.5625,
162.541,3.55625,
162.542,3.55625,
162.543,3.553125,
162.544,3.553125,
162.545,3.546875,
162.546,3.540625,
162.547,3.54375,
162.548,3.546875,
162.549,3.553125,
162.55,3.5625,
162.551,3.55625,
162.552,3.55625,
162.553,3.559375,
162.554,3.5625,
162.555,3.565625,
162.556,3.559375,
162.557,3.559375,
162.558,3.56875,
162.559,3.5625,
162.56,3.565625,
162.561,3.565625,
162.562,3.565625,
162.563,3.553125,
162.564,3.546875,
162.565,3.55,
162.566,3.559375,
162.567,3.55625,
162.568,3.55625,
162.569,3.55625,
162.57,3.559375,
162.571,3.559375,
162.572,3.571875,
162.573,3.58125,
162.574,3.565625,
162.575,3.565625,
162.576,3.5625,
162.577,3.5625,
162.578,3.571875,
162.579,3.59375,
162.58,3.615625,
162.581,3.615625,
162.582,3.615625,
162.583,3.615625,
162.584,3.590625,
162.585,3.565625,
162.586,3.571875,
162.587,3.56875,
162.588,3.56875,
162.589,3.56875,
162.59,3.56875,
162.591,3.55625,
162.592,3.54375,
162.593,3.534375,
162.594,3.5375,
162.595,3.534375,
162.596,3.528125,
162.597,3.53125,
162.598,3.534375,
162.599,3.534375,
162.6,3.54375,
162.601,3.553125,
162.602,3.553125,
162.603,3.55,
162.604,3.55625,
162.605,3.5625,
162.606,3.559375,
162.607,3.55,
162.608,3.5625,
162.609,3.559375,
162.61,3.559375,
162.611,3.571875,
162.612,3.571875,
162.613,3.55625,
162.614,3.553125,
162.615,3.559375,
162.616,3.559375,
162.617,3.565625,
162.618,3.565625,
162.619,3.575,
162.62,3.565625,
162.621,3.559375,
162.622,3.56875,
162.623,3.596875,
162.624,3.690625,
162.625,3.89375,
162.626,4.14375,
162.627,4.3,
162.628,4.221875,
162.629,3.94375,
162.63,3.5875,
162.631,3.403125,
162.632,3.459375,
162.633,3.596875,
162.634,3.675,
162.635,3.678125,
162.636,3.665625,
162.637,3.634375,
162.638,3.6,
162.639,3.578125,
162.64,3.565625,
162.641,3.55625,
162.642,3.540625,
162.643,3.528125,
162.644,3.521875,
162.645,3.525,
162.646,3.521875,
162.647,3.51875,
162.648,3.515625,
162.649,3.50625,
162.65,3.5125,
162.651,3.509375,
162.652,3.503125,
162.653,3.50625,
162.654,3.5125,
162.655,3.51875,
162.656,3.5125,
162.657,3.50625,
162.658,3.515625,
162.659,3.515625,
162.66,3.50625,
162.661,3.496875,
162.662,3.503125,
162.663,3.5125,
162.664,3.51875,
162.665,3.51875,
162.666,3.53125,
162.667,3.51875,
162.668,3.525,
162.669,3.54375,
162.67,3.540625,
162.671,3.540625,
162.672,3.5375,
162.673,3.55,
162.674,3.5375,
162.675,3.528125,
162.676,3.528125,
162.677,3.521875,
162.678,3.53125,
162.679,3.54375,
162.68,3.55,
162.681,3.540625,
162.682,3.540625,
162.683,3.54375,
162.684,3.55625,
162.685,3.55,
162.686,3.546875,
162.687,3.540625,
162.688,3.546875,
162.689,3.55,
162.69,3.553125,
162.691,3.553125,
162.692,3.553125,
162.693,3.553125,
162.694,3.559375,
162.695,3.553125,
162.696,3.54375,
162.697,3.55,
162.698,3.55625,
162.699,3.546875,
162.7,3.546875,
162.701,3.55625,
162.702,3.5625,
162.703,3.55625,
162.704,3.5625,
162.705,3.5625,
162.706,3.55,
162.707,3.54375,
162.708,3.553125,
162.709,3.553125,
162.71,3.54375,
162.711,3.5375,
162.712,3.546875,
162.713,3.54375,
162.714,3.546875,
162.715,3.55,
162.716,3.55,
162.717,3.546875,
162.718,3.546875,
162.719,3.55,
162.72,3.540625,
162.721,3.5375,
162.722,3.54375,
162.723,3.55,
162.724,3.546875,
162.725,3.546875,
162.726,3.5375,
162.727,3.5375,
162.728,3.534375,
162.729,3.540625,
162.73,3.55625,
162.731,3.54375,
162.732,3.546875,
162.733,3.54375,
162.734,3.546875,
162.735,3.54375,
162.736,3.5375,
162.737,3.55,
162.738,3.54375,
162.739,3.5375,
162.74,3.540625,
162.741,3.540625,
162.742,3.54375,
162.743,3.534375,
162.744,3.54375,
162.745,3.54375,
162.746,3.534375,
162.747,3.53125,
162.748,3.54375,
162.749,3.546875,
162.75,3.55,
162.751,3.55,
162.752,3.55,
162.753,3.55,
162.754,3.578125,
162.755,3.6125,
162.756,3.628125,
162.757,3.625,
162.758,3.625,
162.759,3.625,
162.76,3.603125,
162.761,3.565625,
162.762,3.546875,
162.763,3.5375,
162.764,3.5375,
162.765,3.5375,
162.766,3.534375,
162.767,3.525,
162.768,3.5125,
162.769,3.51875,
162.77,3.521875,
162.771,3.525,
162.772,3.51875,
162.773,3.521875,
162.774,3.525,
162.775,3.525,
162.776,3.528125,
162.777,3.521875,
162.778,3.5125,
162.779,3.51875,
162.78,3.534375,
162.781,3.525,
162.782,3.53125,
162.783,3.53125,
162.784,3.5375,
162.785,3.534375,
162.786,3.546875,
162.787,3.55625,
162.788,3.55,
162.789,3.54375,
162.79,3.5375,
162.791,3.54375,
162.792,3.5375,
162.793,3.5375,
162.794,3.54375,
162.795,3.546875,
162.796,3.54375,
162.797,3.55,
162.798,3.553125,
162.799,3.55625,
162.8,3.621875,
162.801,3.790625,
162.802,4.0375,
162.803,4.2,
162.804,4.18125,
162.805,3.953125,
162.806,3.590625,
162.807,3.365625,
162.808,3.4,
162.809,3.546875,
162.81,3.64375,
162.811,3.66875,
162.812,3.65,
162.813,3.609375,
162.814,3.575,
162.815,3.559375,
162.816,3.559375,
162.817,3.54375,
162.818,3.525,
162.819,3.521875,
162.82,3.51875,
162.821,3.509375,
162.822,3.50625,
162.823,3.50625,
162.824,3.496875,
162.825,3.496875,
162.826,3.503125,
162.827,3.509375,
162.828,3.503125,
162.829,3.48125,
162.83,3.490625,
162.831,3.490625,
162.832,3.4875,
162.833,3.49375,
162.834,3.49375,
162.835,3.4875,
162.836,3.4875,
162.837,3.5,
162.838,3.5,
162.839,3.496875,
162.84,3.5,
162.841,3.50625,
162.842,3.496875,
162.843,3.5,
162.844,3.5,
162.845,3.509375,
162.846,3.515625,
162.847,3.525,
162.848,3.534375,
162.849,3.528125,
162.85,3.525,
162.851,3.51875,
162.852,3.51875,
162.853,3.509375,
162.854,3.509375,
162.855,3.521875,
162.856,3.534375,
162.857,3.528125,
162.858,3.51875,
162.859,3.521875,
162.86,3.51875,
162.861,3.515625,
162.862,3.515625,
162.863,3.521875,
162.864,3.51875,
162.865,3.51875,
162.866,3.528125,
162.867,3.525,
162.868,3.515625,
162.869,3.525,
162.87,3.534375,
162.871,3.528125,
162.872,3.5375,
162.873,3.546875,
162.874,3.5375,
162.875,3.5375,
162.876,3.5375,
162.877,3.54375,
162.878,3.5375,
162.879,3.540625,
162.88,3.546875,
162.881,3.546875,
162.882,3.5375,
162.883,3.534375,
162.884,3.534375,
162.885,3.528125,
162.886,3.521875,
162.887,3.528125,
162.888,3.540625,
162.889,3.540625,
162.89,3.540625,
162.891,3.540625,
162.892,3.534375,
162.893,3.521875,
162.894,3.53125,
162.895,3.534375,
162.896,3.528125,
162.897,3.525,
162.898,3.540625,
162.899,3.54375,
162.9,3.5375,
162.901,3.534375,
162.902,3.55,
162.903,3.54375,
162.904,3.540625,
162.905,3.534375,
162.906,3.540625,
162.907,3.5375,
162.908,3.521875,
162.909,3.53125,
162.91,3.528125,
162.911,3.525,
162.912,3.528125,
162.913,3.5375,
162.914,3.528125,
162.915,3.534375,
162.916,3.54375,
162.917,3.540625,
162.918,3.53125,
162.919,3.53125,
162.92,3.534375,
162.921,3.540625,
162.922,3.54375,
162.923,3.553125,
162.924,3.553125,
162.925,3.55,
162.926,3.546875,
162.927,3.54375,
162.928,3.54375,
162.929,3.5375,
162.93,3.54375,
162.931,3.553125,
162.932,3.55625,
162.933,3.575,
162.934,3.596875,
162.935,3.609375,
162.936,3.609375,
162.937,3.6,
162.938,3.615625,
162.939,3.609375,
162.94,3.58125,
162.941,3.5625,
162.942,3.54375,
162.943,3.534375,
162.944,3.5375,
162.945,3.540625,
162.946,3.5375,
162.947,3.525,
162.948,3.528125,
162.949,3.525,
162.95,3.515625,
162.951,3.521875,
162.952,3.5375,
162.953,3.5375,
162.954,3.534375,
162.955,3.53125,
162.956,3.546875,
162.957,3.54375,
162.958,3.54375,
162.959,3.546875,
162.96,3.540625,
162.961,3.534375,
162.962,3.5375,
162.963,3.55,
162.964,3.546875,
162.965,3.553125,
162.966,3.553125,
162.967,3.55,
162.968,3.55,
162.969,3.546875,
162.97,3.540625,
162.971,3.546875,
162.972,3.55,
162.973,3.5625,
162.974,3.565625,
162.975,3.55,
162.976,3.55,
162.977,3.55,
162.978,3.55,
162.979,3.584375,
162.98,3.725,
162.981,3.95,
162.982,4.171875,
162.983,4.253125,
162.984,4.121875,
162.985,3.79375,
162.986,3.459375,
162.987,3.375,
162.988,3.4875,
162.989,3.625,
162.99,3.678125,
162.991,3.675,
162.992,3.634375,
162.993,3.596875,
162.994,3.565625,
162.995,3.559375,
162.996,3.55,
162.997,3.540625,
162.998,3.534375,
162.999,3.521875,
163,3.521875,
163.001,3.51875,
163.002,3.5125,
163.003,3.50625,
163.004,3.503125,
163.005,3.509375,
163.006,3.515625,
163.007,3.509375,
163.008,3.49375,
163.009,3.5,
163.01,3.496875,
163.011,3.484375,
163.012,3.484375,
163.013,3.5,
163.014,3.496875,
163.015,3.490625,
163.016,3.49375,
163.017,3.509375,
163.018,3.5,
163.019,3.503125,
163.02,3.515625,
163.021,3.509375,
163.022,3.509375,
163.023,3.5125,
163.024,3.525,
163.025,3.515625,
163.026,3.521875,
163.027,3.528125,
163.028,3.528125,
163.029,3.53125,
163.03,3.5375,
163.031,3.5375,
163.032,3.53125,
163.033,3.525,
163.034,3.534375,
163.035,3.5375,
163.036,3.5375,
163.037,3.54375,
163.038,3.5375,
163.039,3.540625,
163.04,3.5375,
163.041,3.54375,
163.042,3.546875,
163.043,3.534375,
163.044,3.53125,
163.045,3.53125,
163.046,3.540625,
163.047,3.534375,
163.048,3.5375,
163.049,3.540625,
163.05,3.540625,
163.051,3.534375,
163.052,3.540625,
163.053,3.55,
163.054,3.546875,
163.055,3.54375,
163.056,3.553125,
163.057,3.55,
163.058,3.534375,
163.059,3.534375,
163.06,3.540625,
163.061,3.54375,
163.062,3.546875,
163.063,3.55,
163.064,3.553125,
163.065,3.559375,
163.066,3.54375,
163.067,3.546875,
163.068,3.540625,
163.069,3.540625,
163.07,3.55625,
163.071,3.55625,
163.072,3.546875,
163.073,3.55,
163.074,3.559375,
163.075,3.546875,
163.076,3.5375,
163.077,3.534375,
163.078,3.546875,
163.079,3.54375,
163.08,3.54375,
163.081,3.534375,
163.082,3.534375,
163.083,3.53125,
163.084,3.534375,
163.085,3.534375,
163.086,3.53125,
163.087,3.5375,
163.088,3.534375,
163.089,3.540625,
163.09,3.54375,
163.091,3.55625,
163.092,3.559375,
163.093,3.55,
163.094,3.546875,
163.095,3.546875,
163.096,3.55625,
163.097,3.54375,
163.098,3.54375,
163.099,3.546875,
163.1,3.54375,
163.101,3.54375,
163.102,3.540625,
163.103,3.55625,
163.104,3.559375,
163.105,3.55625,
163.106,3.559375,
163.107,3.559375,
163.108,3.546875,
163.109,3.55,
163.11,3.55,
163.111,3.55,
163.112,3.55,
163.113,3.5625,
163.114,3.559375,
163.115,3.5625,
163.116,3.578125,
163.117,3.590625,
163.118,3.603125,
163.119,3.60625,
163.12,3.61875,
163.121,3.609375,
163.122,3.5875,
163.123,3.565625,
163.124,3.5625,
163.125,3.559375,
163.126,3.5625,
163.127,3.55625,
163.128,3.54375,
163.129,3.525,
163.13,3.521875,
163.131,3.528125,
163.132,3.528125,
163.133,3.525,
163.134,3.51875,
163.135,3.53125,
163.136,3.534375,
163.137,3.53125,
163.138,3.540625,
163.139,3.55,
163.14,3.5375,
163.141,3.5375,
163.142,3.55,
163.143,3.559375,
163.144,3.559375,
163.145,3.55,
163.146,3.54375,
163.147,3.5375,
163.148,3.534375,
163.149,3.53125,
163.15,3.53125,
163.151,3.53125,
163.152,3.53125,
163.153,3.54375,
163.154,3.55,
163.155,3.55625,
163.156,3.559375,
163.157,3.571875,
163.158,3.575,
163.159,3.56875,
163.16,3.571875,
163.161,3.596875,
163.162,3.696875,
163.163,3.90625,
163.164,4.159375,
163.165,4.278125,
163.166,4.165625,
163.167,3.875,
163.168,3.521875,
163.169,3.3875,
163.17,3.475,
163.171,3.603125,
163.172,3.675,
163.173,3.68125,
163.174,3.65,
163.175,3.6125,
163.176,3.578125,
163.177,3.559375,
163.178,3.553125,
163.179,3.546875,
163.18,3.534375,
163.181,3.525,
163.182,3.521875,
163.183,3.515625,
163.184,3.5125,
163.185,3.515625,
163.186,3.509375,
163.187,3.503125,
163.188,3.496875,
163.189,3.503125,
163.19,3.5,
163.191,3.5,
163.192,3.5,
163.193,3.49375,
163.194,3.49375,
163.195,3.496875,
163.196,3.509375,
163.197,3.49375,
163.198,3.490625,
163.199,3.49375,
163.2,3.49375,
163.201,3.503125,
163.202,3.509375,
163.203,3.50625,
163.204,3.509375,
163.205,3.5125,
163.206,3.525,
163.207,3.5375,
163.208,3.53125,
163.209,3.521875,
163.21,3.521875,
163.211,3.528125,
163.212,3.528125,
163.213,3.540625,
163.214,3.546875,
163.215,3.53125,
163.216,3.521875,
163.217,3.528125,
163.218,3.534375,
163.219,3.5375,
163.22,3.54375,
163.221,3.546875,
163.222,3.54375,
163.223,3.5375,
163.224,3.54375,
163.225,3.54375,
163.226,3.534375,
163.227,3.540625,
163.228,3.54375,
163.229,3.540625,
163.23,3.53125,
163.231,3.5375,
163.232,3.546875,
163.233,3.540625,
163.234,3.534375,
163.235,3.54375,
163.236,3.55,
163.237,3.54375,
163.238,3.54375,
163.239,3.55625,
163.24,3.559375,
163.241,3.55,
163.242,3.546875,
163.243,3.546875,
163.244,3.5375,
163.245,3.54375,
163.246,3.55,
163.247,3.5375,
163.248,3.534375,
163.249,3.534375,
163.25,3.540625,
163.251,3.540625,
163.252,3.540625,
163.253,3.559375,
163.254,3.553125,
163.255,3.55,
163.256,3.55625,
163.257,3.553125,
163.258,3.54375,
163.259,3.5375,
163.26,3.546875,
163.261,3.546875,
163.262,3.546875,
163.263,3.546875,
163.264,3.55,
163.265,3.5375,
163.266,3.54375,
163.267,3.55,
163.268,3.55,
163.269,3.54375,
163.27,3.540625,
163.271,3.540625,
163.272,3.540625,
163.273,3.54375,
163.274,3.553125,
163.275,3.55625,
163.276,3.5375,
163.277,3.528125,
163.278,3.534375,
163.279,3.534375,
163.28,3.53125,
163.281,3.540625,
163.282,3.546875,
163.283,3.534375,
163.284,3.528125,
163.285,3.53125,
163.286,3.534375,
163.287,3.53125,
163.288,3.55,
163.289,3.5625,
163.29,3.5625,
163.291,3.54375,
163.292,3.54375,
163.293,3.559375,
163.294,3.578125,
163.295,3.596875,
163.296,3.6125,
163.297,3.615625,
163.298,3.609375,
163.299,3.60625,
163.3,3.590625,
163.301,3.571875,
163.302,3.559375,
163.303,3.559375,
163.304,3.5625,
163.305,3.5625,
163.306,3.55625,
163.307,3.5625,
163.308,3.55,
163.309,3.528125,
163.31,3.525,
163.311,3.525,
163.312,3.528125,
163.313,3.521875,
163.314,3.528125,
163.315,3.521875,
163.316,3.515625,
163.317,3.521875,
163.318,3.5375,
163.319,3.5375,
163.32,3.540625,
163.321,3.534375,
163.322,3.540625,
163.323,3.534375,
163.324,3.54375,
163.325,3.546875,
163.326,3.54375,
163.327,3.5375,
163.328,3.540625,
163.329,3.553125,
163.33,3.55,
163.331,3.55,
163.332,3.553125,
163.333,3.546875,
163.334,3.540625,
163.335,3.54375,
163.336,3.55625,
163.337,3.55625,
163.338,3.55625,
163.339,3.5875,
163.34,3.684375,
163.341,3.88125,
163.342,4.11875,
163.343,4.23125,
163.344,4.11875,
163.345,3.8125,
163.346,3.484375,
163.347,3.36875,
163.348,3.4625,
163.349,3.59375,
163.35,3.6625,
163.351,3.653125,
163.352,3.625,
163.353,3.60625,
163.354,3.58125,
163.355,3.559375,
163.356,3.559375,
163.357,3.55,
163.358,3.53125,
163.359,3.521875,
163.36,3.5125,
163.361,3.525,
163.362,3.515625,
163.363,3.503125,
163.364,3.5,
163.365,3.4875,
163.366,3.484375,
163.367,3.484375,
163.368,3.490625,
163.369,3.4875,
163.37,3.490625,
163.371,3.503125,
163.372,3.5,
163.373,3.496875,
163.374,3.4875,
163.375,3.496875,
163.376,3.490625,
163.377,3.4875,
163.378,3.49375,
163.379,3.509375,
163.38,3.503125,
163.381,3.50625,
163.382,3.496875,
163.383,3.503125,
163.384,3.5,
163.385,3.50625,
163.386,3.51875,
163.387,3.515625,
163.388,3.5125,
163.389,3.521875,
163.39,3.528125,
163.391,3.528125,
163.392,3.53125,
163.393,3.528125,
163.394,3.51875,
163.395,3.521875,
163.396,3.53125,
163.397,3.54375,
163.398,3.540625,
163.399,3.534375,
163.4,3.525,
163.401,3.521875,
163.402,3.521875,
163.403,3.53125,
163.404,3.54375,
163.405,3.540625,
163.406,3.534375,
163.407,3.5375,
163.408,3.534375,
163.409,3.528125,
163.41,3.53125,
163.411,3.53125,
163.412,3.528125,
163.413,3.528125,
163.414,3.528125,
163.415,3.525,
163.416,3.515625,
163.417,3.525,
163.418,3.5375,
163.419,3.540625,
163.42,3.5375,
163.421,3.5375,
163.422,3.540625,
163.423,3.540625,
163.424,3.5375,
163.425,3.54375,
163.426,3.540625,
163.427,3.540625,
163.428,3.5375,
163.429,3.5375,
163.43,3.528125,
163.431,3.53125,
163.432,3.540625,
163.433,3.546875,
163.434,3.528125,
163.435,3.521875,
163.436,3.5375,
163.437,3.53125,
163.438,3.54375,
163.439,3.540625,
163.44,3.553125,
163.441,3.54375,
163.442,3.5375,
163.443,3.5375,
163.444,3.540625,
163.445,3.5375,
163.446,3.53125,
163.447,3.5375,
163.448,3.5375,
163.449,3.528125,
163.45,3.528125,
163.451,3.53125,
163.452,3.528125,
163.453,3.546875,
163.454,3.546875,
163.455,3.5375,
163.456,3.534375,
163.457,3.54375,
163.458,3.53125,
163.459,3.525,
163.46,3.525,
163.461,3.534375,
163.462,3.528125,
163.463,3.51875,
163.464,3.525,
163.465,3.534375,
163.466,3.528125,
163.467,3.528125,
163.468,3.540625,
163.469,3.5375,
163.47,3.534375,
163.471,3.540625,
163.472,3.559375,
163.473,3.578125,
163.474,3.59375,
163.475,3.603125,
163.476,3.603125,
163.477,3.615625,
163.478,3.60625,
163.479,3.590625,
163.48,3.55625,
163.481,3.53125,
163.482,3.540625,
163.483,3.546875,
163.484,3.540625,
163.485,3.525,
163.486,3.528125,
163.487,3.525,
163.488,3.51875,
163.489,3.528125,
163.49,3.5375,
163.491,3.540625,
163.492,3.540625,
163.493,3.53125,
163.494,3.534375,
163.495,3.528125,
163.496,3.521875,
163.497,3.5375,
163.498,3.534375,
163.499,3.53125,
163.5,3.528125,
163.501,3.540625,
163.502,3.528125,
163.503,3.53125,
163.504,3.55,
163.505,3.55625,
163.506,3.55625,
163.507,3.553125,
163.508,3.55,
163.509,3.54375,
163.51,3.546875,
163.511,3.553125,
163.512,3.546875,
163.513,3.5375,
163.514,3.546875,
163.515,3.5625,
163.516,3.5625,
163.517,3.5625,
163.518,3.5875,
163.519,3.7125,
163.52,3.928125,
163.521,4.15625,
163.522,4.234375,
163.523,4.1,
163.524,3.765625,
163.525,3.45,
163.526,3.371875,
163.527,3.471875,
163.528,3.6125,
163.529,3.678125,
163.53,3.66875,
163.531,3.634375,
163.532,3.596875,
163.533,3.578125,
163.534,3.5625,
163.535,3.559375,
163.536,3.559375,
163.537,3.5375,
163.538,3.525,
163.539,3.521875,
163.54,3.521875,
163.541,3.5125,
163.542,3.509375,
163.543,3.515625,
163.544,3.509375,
163.545,3.509375,
163.546,3.496875,
163.547,3.503125,
163.548,3.5,
163.549,3.49375,
163.55,3.496875,
163.551,3.496875,
163.552,3.484375,
163.553,3.49375,
163.554,3.509375,
163.555,3.509375,
163.556,3.503125,
163.557,3.509375,
163.558,3.528125,
163.559,3.5125,
163.56,3.5125,
163.561,3.528125,
163.562,3.53125,
163.563,3.525,
163.564,3.521875,
163.565,3.525,
163.566,3.521875,
163.567,3.528125,
163.568,3.528125,
163.569,3.5375,
163.57,3.525,
163.571,3.521875,
163.572,3.53125,
163.573,3.5375,
163.574,3.525,
163.575,3.53125,
163.576,3.55,
163.577,3.55,
163.578,3.55,
163.579,3.553125,
163.58,3.553125,
163.581,3.5375,
163.582,3.540625,
163.583,3.55,
163.584,3.5375,
163.585,3.540625,
163.586,3.546875,
163.587,3.546875,
163.588,3.540625,
163.589,3.540625,
163.59,3.553125,
163.591,3.559375,
163.592,3.55,
163.593,3.55,
163.594,3.55,
163.595,3.54375,
163.596,3.5375,
163.597,3.55,
163.598,3.540625,
163.599,3.5375,
163.6,3.540625,
163.601,3.55,
163.602,3.540625,
163.603,3.5375,
163.604,3.534375,
163.605,3.54375,
163.606,3.540625,
163.607,3.546875,
163.608,3.55625,
163.609,3.546875,
163.61,3.553125,
163.611,3.55625,
163.612,3.55625,
163.613,3.540625,
163.614,3.54375,
163.615,3.55625,
163.616,3.540625,
163.617,3.534375,
163.618,3.540625,
163.619,3.55,
163.62,3.54375,
163.621,3.54375,
163.622,3.55,
163.623,3.55625,
163.624,3.55,
163.625,3.54375,
163.626,3.553125,
163.627,3.553125,
163.628,3.540625,
163.629,3.540625,
163.63,3.54375,
163.631,3.528125,
163.632,3.534375,
163.633,3.540625,
163.634,3.540625,
163.635,3.534375,
163.636,3.546875,
163.637,3.553125,
163.638,3.546875,
163.639,3.55,
163.64,3.559375,
163.641,3.55,
163.642,3.55,
163.643,3.553125,
163.644,3.553125,
163.645,3.546875,
163.646,3.546875,
163.647,3.546875,
163.648,3.553125,
163.649,3.55,
163.65,3.553125,
163.651,3.559375,
163.652,3.553125,
163.653,3.5625,
163.654,3.584375,
163.655,3.6,
163.656,3.6125,
163.657,3.61875,
163.658,3.63125,
163.659,3.621875,
163.66,3.596875,
163.661,3.575,
163.662,3.5625,
163.663,3.55625,
163.664,3.5625,
163.665,3.5625,
163.666,3.5625,
163.667,3.553125,
163.668,3.55,
163.669,3.546875,
163.67,3.5375,
163.671,3.525,
163.672,3.528125,
163.673,3.5375,
163.674,3.53125,
163.675,3.540625,
163.676,3.546875,
163.677,3.540625,
163.678,3.5375,
163.679,3.5375,
163.68,3.5375,
163.681,3.540625,
163.682,3.559375,
163.683,3.56875,
163.684,3.559375,
163.685,3.5375,
163.686,3.540625,
163.687,3.55,
163.688,3.546875,
163.689,3.54375,
163.69,3.553125,
163.691,3.5625,
163.692,3.559375,
163.693,3.5625,
163.694,3.5625,
163.695,3.55625,
163.696,3.559375,
163.697,3.565625,
163.698,3.56875,
163.699,3.571875,
163.7,3.646875,
163.701,3.8125,
163.702,4.053125,
163.703,4.253125,
163.704,4.2625,
163.705,4.05,
163.706,3.6875,
163.707,3.421875,
163.708,3.421875,
163.709,3.540625,
163.71,3.64375,
163.711,3.675,
163.712,3.65625,
163.713,3.625,
163.714,3.59375,
163.715,3.575,
163.716,3.5625,
163.717,3.55,
163.718,3.5375,
163.719,3.540625,
163.72,3.525,
163.721,3.5125,
163.722,3.515625,
163.723,3.51875,
163.724,3.528125,
163.725,3.525,
163.726,3.525,
163.727,3.50625,
163.728,3.484375,
163.729,3.49375,
163.73,3.50625,
163.731,3.509375,
163.732,3.5125,
163.733,3.51875,
163.734,3.51875,
163.735,3.50625,
163.736,3.490625,
163.737,3.490625,
163.738,3.496875,
163.739,3.496875,
163.74,3.5125,
163.741,3.528125,
163.742,3.53125,
163.743,3.534375,
163.744,3.5375,
163.745,3.5375,
163.746,3.525,
163.747,3.528125,
163.748,3.53125,
163.749,3.534375,
163.75,3.5375,
163.751,3.54375,
163.752,3.546875,
163.753,3.53125,
163.754,3.534375,
163.755,3.54375,
163.756,3.540625,
163.757,3.540625,
163.758,3.55,
163.759,3.55625,
163.76,3.55,
163.761,3.54375,
163.762,3.559375,
163.763,3.553125,
163.764,3.540625,
163.765,3.55,
163.766,3.559375,
163.767,3.55625,
163.768,3.5375,
163.769,3.534375,
163.77,3.528125,
163.771,3.525,
163.772,3.525,
163.773,3.5375,
163.774,3.540625,
163.775,3.553125,
163.776,3.559375,
163.777,3.546875,
163.778,3.546875,
163.779,3.54375,
163.78,3.553125,
163.781,3.553125,
163.782,3.546875,
163.783,3.540625,
163.784,3.55,
163.785,3.540625,
163.786,3.540625,
163.787,3.534375,
163.788,3.5375,
163.789,3.540625,
163.79,3.553125,
163.791,3.565625,
163.792,3.559375,
163.793,3.55625,
163.794,3.55,
163.795,3.546875,
163.796,3.540625,
163.797,3.54375,
163.798,3.55,
163.799,3.54375,
163.8,3.54375,
163.801,3.54375,
163.802,3.553125,
163.803,3.540625,
163.804,3.540625,
163.805,3.54375,
163.806,3.546875,
163.807,3.546875,
163.808,3.559375,
163.809,3.565625,
163.81,3.55625,
163.811,3.553125,
163.812,3.553125,
163.813,3.55,
163.814,3.553125,
163.815,3.55,
163.816,3.55,
163.817,3.546875,
163.818,3.55,
163.819,3.55,
163.82,3.540625,
163.821,3.534375,
163.822,3.5375,
163.823,3.55,
163.824,3.5625,
163.825,3.55625,
163.826,3.559375,
163.827,3.559375,
163.828,3.553125,
163.829,3.559375,
163.83,3.578125,
163.831,3.584375,
163.832,3.5875,
163.833,3.60625,
163.834,3.625,
163.835,3.61875,
163.836,3.603125,
163.837,3.5875,
163.838,3.571875,
163.839,3.55625,
163.84,3.565625,
163.841,3.58125,
163.842,3.56875,
163.843,3.553125,
163.844,3.540625,
163.845,3.54375,
163.846,3.534375,
163.847,3.540625,
163.848,3.534375,
163.849,3.521875,
163.85,3.515625,
163.851,3.528125,
163.852,3.534375,
163.853,3.525,
163.854,3.528125,
163.855,3.534375,
163.856,3.540625,
163.857,3.54375,
163.858,3.553125,
163.859,3.553125,
163.86,3.54375,
163.861,3.546875,
163.862,3.553125,
163.863,3.559375,
163.864,3.55,
163.865,3.55,
163.866,3.55,
163.867,3.553125,
163.868,3.55,
163.869,3.553125,
163.87,3.553125,
163.871,3.54375,
163.872,3.5375,
163.873,3.546875,
163.874,3.55,
163.875,3.55625,
163.876,3.559375,
163.877,3.61875,
163.878,3.771875,
163.879,4,
163.88,4.20625,
163.881,4.2375,
163.882,4.053125,
163.883,3.71875,
163.884,3.440625,
163.885,3.390625,
163.886,3.5125,
163.887,3.63125,
163.888,3.671875,
163.889,3.653125,
163.89,3.625,
163.891,3.6125,
163.892,3.590625,
163.893,3.5625,
163.894,3.553125,
163.895,3.546875,
163.896,3.540625,
163.897,3.534375,
163.898,3.53125,
163.899,3.528125,
163.9,3.515625,
163.901,3.509375,
163.902,3.5125,
163.903,3.49375,
163.904,3.478125,
163.905,3.484375,
163.906,3.49375,
163.907,3.5,
163.908,3.496875,
163.909,3.5,
163.91,3.496875,
163.911,3.5,
163.912,3.50625,
163.913,3.50625,
163.914,3.490625,
163.915,3.496875,
163.916,3.515625,
163.917,3.515625,
163.918,3.503125,
163.919,3.50625,
163.92,3.503125,
163.921,3.5,
163.922,3.50625,
163.923,3.525,
163.924,3.546875,
163.925,3.5375,
163.926,3.534375,
163.927,3.53125,
163.928,3.5375,
163.929,3.5375,
163.93,3.5375,
163.931,3.5375,
163.932,3.5375,
163.933,3.5375,
163.934,3.54375,
163.935,3.5375,
163.936,3.534375,
163.937,3.5375,
163.938,3.534375,
163.939,3.528125,
163.94,3.540625,
163.941,3.55,
163.942,3.55,
163.943,3.5375,
163.944,3.534375,
163.945,3.54375,
163.946,3.540625,
163.947,3.540625,
163.948,3.54375,
163.949,3.540625,
163.95,3.5375,
163.951,3.553125,
163.952,3.559375,
163.953,3.540625,
163.954,3.534375,
163.955,3.528125,
163.956,3.540625,
163.957,3.54375,
163.958,3.553125,
163.959,3.565625,
163.96,3.553125,
163.961,3.546875,
163.962,3.55,
163.963,3.553125,
163.964,3.546875,
163.965,3.546875,
163.966,3.54375,
163.967,3.540625,
163.968,3.540625,
163.969,3.546875,
163.97,3.54375,
163.971,3.534375,
163.972,3.528125,
163.973,3.54375,
163.974,3.5625,
163.975,3.5625,
163.976,3.55,
163.977,3.546875,
163.978,3.5375,
163.979,3.534375,
163.98,3.54375,
163.981,3.553125,
163.982,3.540625,
163.983,3.534375,
163.984,3.54375,
163.985,3.5375,
163.986,3.528125,
163.987,3.521875,
163.988,3.53125,
163.989,3.534375,
163.99,3.53125,
163.991,3.546875,
163.992,3.546875,
163.993,3.559375,
163.994,3.5625,
163.995,3.565625,
163.996,3.55,
163.997,3.540625,
163.998,3.553125,
163.999,3.54375,
164,3.5375,
164.001,3.54375,
164.002,3.54375,
164.003,3.5375,
164.004,3.53125,
164.005,3.540625,
164.006,3.55625,
164.007,3.58125,
164.008,3.596875,
164.009,3.6125,
164.01,3.6125,
164.011,3.609375,
164.012,3.603125,
164.013,3.6,
164.014,3.571875,
164.015,3.553125,
164.016,3.54375,
164.017,3.540625,
164.018,3.534375,
164.019,3.51875,
164.02,3.5125,
164.021,3.503125,
164.022,3.496875,
164.023,3.50625,
164.024,3.521875,
164.025,3.51875,
164.026,3.51875,
164.027,3.51875,
164.028,3.525,
164.029,3.525,
164.03,3.528125,
164.031,3.525,
164.032,3.521875,
164.033,3.51875,
164.034,3.521875,
164.035,3.528125,
164.036,3.521875,
164.037,3.515625,
164.038,3.515625,
164.039,3.515625,
164.04,3.53125,
164.041,3.546875,
164.042,3.55,
164.043,3.5375,
164.044,3.54375,
164.045,3.55,
164.046,3.5375,
164.047,3.528125,
164.048,3.5375,
164.049,3.553125,
164.05,3.55,
164.051,3.5375,
164.052,3.546875,
164.053,3.60625,
164.054,3.753125,
164.055,3.98125,
164.056,4.184375,
164.057,4.196875,
164.058,4,
164.059,3.64375,
164.06,3.375,
164.061,3.365625,
164.062,3.5125,
164.063,3.64375,
164.064,3.678125,
164.065,3.646875,
164.066,3.615625,
164.067,3.59375,
164.068,3.571875,
164.069,3.55,
164.07,3.54375,
164.071,3.525,
164.072,3.515625,
164.073,3.521875,
164.074,3.53125,
164.075,3.521875,
164.076,3.509375,
164.077,3.5125,
164.078,3.521875,
164.079,3.5125,
164.08,3.5,
164.081,3.49375,
164.082,3.5,
164.083,3.496875,
164.084,3.496875,
164.085,3.509375,
164.086,3.490625,
164.087,3.48125,
164.088,3.484375,
164.089,3.49375,
164.09,3.490625,
164.091,3.496875,
164.092,3.509375,
164.093,3.509375,
164.094,3.5125,
164.095,3.515625,
164.096,3.525,
164.097,3.521875,
164.098,3.521875,
164.099,3.528125,
164.1,3.528125,
164.101,3.525,
164.102,3.534375,
164.103,3.534375,
164.104,3.515625,
164.105,3.521875,
164.106,3.534375,
164.107,3.546875,
164.108,3.55,
164.109,3.55,
164.11,3.54375,
164.111,3.540625,
164.112,3.54375,
164.113,3.553125,
164.114,3.55,
164.115,3.55,
164.116,3.55,
164.117,3.54375,
164.118,3.528125,
164.119,3.525,
164.12,3.51875,
164.121,3.525,
164.122,3.53125,
164.123,3.540625,
164.124,3.55625,
164.125,3.55,
164.126,3.5375,
164.127,3.528125,
164.128,3.546875,
164.129,3.55,
164.13,3.553125,
164.131,3.553125,
164.132,3.553125,
164.133,3.54375,
164.134,3.54375,
164.135,3.55,
164.136,3.54375,
164.137,3.5375,
164.138,3.5375,
164.139,3.5375,
164.14,3.54375,
164.141,3.546875,
164.142,3.553125,
164.143,3.55,
164.144,3.54375,
164.145,3.54375,
164.146,3.54375,
164.147,3.534375,
164.148,3.546875,
164.149,3.540625,
164.15,3.54375,
164.151,3.534375,
164.152,3.54375,
164.153,3.55,
164.154,3.5375,
164.155,3.534375,
164.156,3.54375,
164.157,3.546875,
164.158,3.54375,
164.159,3.546875,
164.16,3.546875,
164.161,3.540625,
164.162,3.53125,
164.163,3.54375,
164.164,3.55625,
164.165,3.546875,
164.166,3.546875,
164.167,3.553125,
164.168,3.553125,
164.169,3.54375,
164.17,3.546875,
164.171,3.553125,
164.172,3.5625,
164.173,3.55,
164.174,3.559375,
164.175,3.5625,
164.176,3.55625,
164.177,3.559375,
164.178,3.56875,
164.179,3.565625,
164.18,3.571875,
164.181,3.559375,
164.182,3.553125,
164.183,3.553125,
164.184,3.55,
164.185,3.565625,
164.186,3.571875,
164.187,3.58125,
164.188,3.596875,
164.189,3.615625,
164.19,3.61875,
164.191,3.625,
164.192,3.6125,
164.193,3.584375,
164.194,3.559375,
164.195,3.56875,
164.196,3.578125,
164.197,3.575,
164.198,3.559375,
164.199,3.55,
164.2,3.540625,
164.201,3.525,
164.202,3.528125,
164.203,3.525,
164.204,3.515625,
164.205,3.521875,
164.206,3.528125,
164.207,3.540625,
164.208,3.5375,
164.209,3.540625,
164.21,3.5375,
164.211,3.540625,
164.212,3.540625,
164.213,3.553125,
164.214,3.55625,
164.215,3.55,
164.216,3.553125,
164.217,3.55625,
164.218,3.55625,
164.219,3.546875,
164.22,3.540625,
164.221,3.54375,
164.222,3.546875,
164.223,3.546875,
164.224,3.559375,
164.225,3.559375,
164.226,3.553125,
164.227,3.55625,
164.228,3.565625,
164.229,3.5625,
164.23,3.565625,
164.231,3.58125,
164.232,3.64375,
164.233,3.778125,
164.234,4.009375,
164.235,4.221875,
164.236,4.265625,
164.237,4.08125,
164.238,3.7375,
164.239,3.453125,
164.24,3.396875,
164.241,3.528125,
164.242,3.646875,
164.243,3.684375,
164.244,3.66875,
164.245,3.625,
164.246,3.603125,
164.247,3.584375,
164.248,3.56875,
164.249,3.559375,
164.25,3.553125,
164.251,3.540625,
164.252,3.528125,
164.253,3.5125,
164.254,3.5,
164.255,3.49375,
164.256,3.496875,
164.257,3.509375,
164.258,3.51875,
164.259,3.51875,
164.26,3.509375,
164.261,3.50625,
164.262,3.496875,
164.263,3.496875,
164.264,3.5125,
164.265,3.5,
164.266,3.490625,
164.267,3.49375,
164.268,3.4875,
164.269,3.48125,
164.27,3.490625,
164.271,3.503125,
164.272,3.51875,
164.273,3.509375,
164.274,3.5125,
164.275,3.528125,
164.276,3.525,
164.277,3.534375,
164.278,3.546875,
164.279,3.54375,
164.28,3.534375,
164.281,3.534375,
164.282,3.5375,
164.283,3.53125,
164.284,3.528125,
164.285,3.525,
164.286,3.53125,
164.287,3.528125,
164.288,3.5375,
164.289,3.546875,
164.29,3.546875,
164.291,3.553125,
164.292,3.559375,
164.293,3.55,
164.294,3.54375,
164.295,3.55,
164.296,3.5625,
164.297,3.5625,
164.298,3.55625,
164.299,3.55625,
164.3,3.559375,
164.301,3.55,
164.302,3.54375,
164.303,3.5375,
164.304,3.528125,
164.305,3.534375,
164.306,3.553125,
164.307,3.5625,
164.308,3.5625,
164.309,3.5625,
164.31,3.565625,
164.311,3.565625,
164.312,3.55625,
164.313,3.553125,
164.314,3.559375,
164.315,3.55625,
164.316,3.55,
164.317,3.546875,
164.318,3.54375,
164.319,3.540625,
164.32,3.53125,
164.321,3.534375,
164.322,3.546875,
164.323,3.559375,
164.324,3.5625,
164.325,3.5625,
164.326,3.54375,
164.327,3.534375,
164.328,3.54375,
164.329,3.553125,
164.33,3.546875,
164.331,3.553125,
164.332,3.55625,
164.333,3.559375,
164.334,3.54375,
164.335,3.546875,
164.336,3.540625,
164.337,3.5375,
164.338,3.54375,
164.339,3.55625,
164.34,3.559375,
164.341,3.559375,
164.342,3.559375,
164.343,3.55625,
164.344,3.55625,
164.345,3.553125,
164.346,3.54375,
164.347,3.5375,
164.348,3.53125,
164.349,3.534375,
164.35,3.546875,
164.351,3.546875,
164.352,3.5375,
164.353,3.534375,
164.354,3.534375,
164.355,3.540625,
164.356,3.553125,
164.357,3.56875,
164.358,3.55625,
164.359,3.553125,
164.36,3.553125,
164.361,3.559375,
164.362,3.56875,
164.363,3.59375,
164.364,3.609375,
164.365,3.625,
164.366,3.6375,
164.367,3.634375,
164.368,3.615625,
164.369,3.578125,
164.37,3.559375,
164.371,3.55625,
164.372,3.565625,
164.373,3.56875,
164.374,3.5625,
164.375,3.559375,
164.376,3.54375,
164.377,3.53125,
164.378,3.51875,
164.379,3.53125,
164.38,3.528125,
164.381,3.5375,
164.382,3.55,
164.383,3.546875,
164.384,3.534375,
164.385,3.534375,
164.386,3.540625,
164.387,3.5375,
164.388,3.540625,
164.389,3.546875,
164.39,3.546875,
164.391,3.5375,
164.392,3.546875,
164.393,3.553125,
164.394,3.55625,
164.395,3.546875,
164.396,3.559375,
164.397,3.5625,
164.398,3.559375,
164.399,3.559375,
164.4,3.559375,
164.401,3.553125,
164.402,3.55,
164.403,3.553125,
164.404,3.553125,
164.405,3.553125,
164.406,3.55625,
164.407,3.575,
164.408,3.59375,
164.409,3.678125,
164.41,3.871875,
164.411,4.1125,
164.412,4.240625,
164.413,4.1625,
164.414,3.884375,
164.415,3.534375,
164.416,3.38125,
164.417,3.446875,
164.418,3.584375,
164.419,3.659375,
164.42,3.665625,
164.421,3.6375,
164.422,3.609375,
164.423,3.58125,
164.424,3.56875,
164.425,3.559375,
164.426,3.55,
164.427,3.54375,
164.428,3.53125,
164.429,3.53125,
164.43,3.528125,
164.431,3.525,
164.432,3.525,
164.433,3.51875,
164.434,3.50625,
164.435,3.5,
164.436,3.5,
164.437,3.4875,
164.438,3.484375,
164.439,3.496875,
164.44,3.515625,
164.441,3.5125,
164.442,3.5125,
164.443,3.521875,
164.444,3.521875,
164.445,3.5125,
164.446,3.50625,
164.447,3.528125,
164.448,3.53125,
164.449,3.528125,
164.45,3.525,
164.451,3.5125,
164.452,3.5,
164.453,3.509375,
164.454,3.50625,
164.455,3.51875,
164.456,3.51875,
164.457,3.525,
164.458,3.528125,
164.459,3.528125,
164.46,3.546875,
164.461,3.55,
164.462,3.546875,
164.463,3.54375,
164.464,3.546875,
164.465,3.553125,
164.466,3.54375,
164.467,3.5375,
164.468,3.540625,
164.469,3.525,
164.47,3.509375,
164.471,3.5125,
164.472,3.534375,
164.473,3.54375,
164.474,3.546875,
164.475,3.553125,
164.476,3.546875,
164.477,3.540625,
164.478,3.54375,
164.479,3.553125,
164.48,3.546875,
164.481,3.5375,
164.482,3.546875,
164.483,3.553125,
164.484,3.55,
164.485,3.54375,
164.486,3.54375,
164.487,3.528125,
164.488,3.53125,
164.489,3.54375,
164.49,3.55625,
164.491,3.546875,
164.492,3.5375,
164.493,3.5375,
164.494,3.540625,
164.495,3.540625,
164.496,3.546875,
164.497,3.55625,
164.498,3.54375,
164.499,3.54375,
164.5,3.55,
164.501,3.546875,
164.502,3.5375,
164.503,3.5375,
164.504,3.540625,
164.505,3.5375,
164.506,3.5375,
164.507,3.54375,
164.508,3.546875,
164.509,3.55625,
164.51,3.55625,
164.511,3.55625,
164.512,3.55,
164.513,3.5375,
164.514,3.54375,
164.515,3.54375,
164.516,3.5375,
164.517,3.534375,
164.518,3.546875,
164.519,3.5375,
164.52,3.525,
164.521,3.54375,
164.522,3.546875,
164.523,3.534375,
164.524,3.540625,
164.525,3.54375,
164.526,3.540625,
164.527,3.5375,
164.528,3.534375,
164.529,3.5375,
164.53,3.53125,
164.531,3.53125,
164.532,3.540625,
164.533,3.54375,
164.534,3.5375,
164.535,3.528125,
164.536,3.540625,
164.537,3.540625,
164.538,3.553125,
164.539,3.575,
164.54,3.603125,
164.541,3.6125,
164.542,3.615625,
164.543,3.609375,
164.544,3.609375,
164.545,3.5875,
164.546,3.56875,
164.547,3.5625,
164.548,3.54375,
164.549,3.540625,
164.55,3.534375,
164.551,3.534375,
164.552,3.521875,
164.553,3.515625,
164.554,3.515625,
164.555,3.503125,
164.556,3.5125,
164.557,3.51875,
164.558,3.53125,
164.559,3.51875,
164.56,3.51875,
164.561,3.525,
164.562,3.528125,
164.563,3.528125,
164.564,3.53125,
164.565,3.54375,
164.566,3.5375,
164.567,3.528125,
164.568,3.525,
164.569,3.525,
164.57,3.521875,
164.571,3.51875,
164.572,3.53125,
164.573,3.5375,
164.574,3.534375,
164.575,3.540625,
164.576,3.54375,
164.577,3.54375,
164.578,3.546875,
164.579,3.559375,
164.58,3.553125,
164.581,3.546875,
164.582,3.546875,
164.583,3.559375,
164.584,3.584375,
164.585,3.68125,
164.586,3.878125,
164.587,4.103125,
164.588,4.209375,
164.589,4.103125,
164.59,3.81875,
164.591,3.48125,
164.592,3.353125,
164.593,3.453125,
164.594,3.59375,
164.595,3.665625,
164.596,3.66875,
164.597,3.6375,
164.598,3.59375,
164.599,3.575,
164.6,3.55,
164.601,3.54375,
164.602,3.5375,
164.603,3.53125,
164.604,3.528125,
164.605,3.525,
164.606,3.5125,
164.607,3.51875,
164.608,3.51875,
164.609,3.503125,
164.61,3.49375,
164.611,3.496875,
164.612,3.5,
164.613,3.5,
164.614,3.509375,
164.615,3.5125,
164.616,3.503125,
164.617,3.490625,
164.618,3.48125,
164.619,3.490625,
164.62,3.4875,
164.621,3.49375,
164.622,3.5,
164.623,3.509375,
164.624,3.503125,
164.625,3.509375,
164.626,3.521875,
164.627,3.525,
164.628,3.525,
164.629,3.528125,
164.63,3.534375,
164.631,3.528125,
164.632,3.534375,
164.633,3.5375,
164.634,3.528125,
164.635,3.51875,
164.636,3.525,
164.637,3.528125,
164.638,3.528125,
164.639,3.534375,
164.64,3.546875,
164.641,3.55,
164.642,3.55,
164.643,3.553125,
164.644,3.55625,
164.645,3.559375,
164.646,3.540625,
164.647,3.55,
164.648,3.55,
164.649,3.55,
164.65,3.55,
164.651,3.55625,
164.652,3.54375,
164.653,3.53125,
164.654,3.5375,
164.655,3.546875,
164.656,3.54375,
164.657,3.5375,
164.658,3.553125,
164.659,3.55,
164.66,3.546875,
164.661,3.553125,
164.662,3.5625,
164.663,3.5625,
164.664,3.55625,
164.665,3.559375,
164.666,3.55,
164.667,3.540625,
164.668,3.5375,
164.669,3.54375,
164.67,3.5375,
164.671,3.5375,
164.672,3.54375,
164.673,3.553125,
164.674,3.546875,
164.675,3.546875,
164.676,3.55625,
164.677,3.546875,
164.678,3.5375,
164.679,3.5375,
164.68,3.540625,
164.681,3.546875,
164.682,3.546875,
164.683,3.546875,
164.684,3.54375,
164.685,3.521875,
164.686,3.528125,
164.687,3.5375,
164.688,3.53125,
164.689,3.534375,
164.69,3.546875,
164.691,3.553125,
164.692,3.54375,
164.693,3.55625,
164.694,3.565625,
164.695,3.553125,
164.696,3.540625,
164.697,3.54375,
164.698,3.546875,
164.699,3.546875,
164.7,3.55,
164.701,3.55,
164.702,3.5375,
164.703,3.53125,
164.704,3.5375,
164.705,3.5375,
164.706,3.5375,
164.707,3.546875,
164.708,3.55625,
164.709,3.559375,
164.71,3.546875,
164.711,3.54375,
164.712,3.55,
164.713,3.54375,
164.714,3.546875,
164.715,3.55625,
164.716,3.56875,
164.717,3.5625,
164.718,3.571875,
164.719,3.584375,
164.72,3.590625,
164.721,3.603125,
164.722,3.6125,
164.723,3.625,
164.724,3.6125,
164.725,3.59375,
164.726,3.575,
164.727,3.55625,
164.728,3.55,
164.729,3.559375,
164.73,3.565625,
164.731,3.55625,
164.732,3.55,
164.733,3.55,
164.734,3.54375,
164.735,3.528125,
164.736,3.51875,
164.737,3.528125,
164.738,3.521875,
164.739,3.521875,
164.74,3.534375,
164.741,3.54375,
164.742,3.540625,
164.743,3.540625,
164.744,3.540625,
164.745,3.540625,
164.746,3.54375,
164.747,3.55625,
164.748,3.559375,
164.749,3.55,
164.75,3.534375,
164.751,3.5375,
164.752,3.534375,
164.753,3.534375,
164.754,3.54375,
164.755,3.553125,
164.756,3.55,
164.757,3.55,
164.758,3.55,
164.759,3.553125,
164.76,3.559375,
164.761,3.559375,
164.762,3.56875,
164.763,3.5625,
164.764,3.565625,
164.765,3.63125,
164.766,3.79375,
164.767,4.021875,
164.768,4.225,
164.769,4.2625,
164.77,4.0625,
164.771,3.709375,
164.772,3.440625,
164.773,3.415625,
164.774,3.54375,
164.775,3.653125,
164.776,3.6875,
164.777,3.675,
164.778,3.6375,
164.779,3.609375,
164.78,3.596875,
164.781,3.575,
164.782,3.56875,
164.783,3.559375,
164.784,3.54375,
164.785,3.525,
164.786,3.5125,
164.787,3.515625,
164.788,3.509375,
164.789,3.50625,
164.79,3.5125,
164.791,3.51875,
164.792,3.515625,
164.793,3.509375,
164.794,3.509375,
164.795,3.515625,
164.796,3.50625,
164.797,3.5125,
164.798,3.5125,
164.799,3.503125,
164.8,3.5,
164.801,3.490625,
164.802,3.49375,
164.803,3.484375,
164.804,3.503125,
164.805,3.525,
164.806,3.528125,
164.807,3.53125,
164.808,3.53125,
164.809,3.528125,
164.81,3.528125,
164.811,3.515625,
164.812,3.534375,
164.813,3.534375,
164.814,3.53125,
164.815,3.5375,
164.816,3.54375,
164.817,3.5375,
164.818,3.521875,
164.819,3.521875,
164.82,3.515625,
164.821,3.525,
164.822,3.54375,
164.823,3.5625,
164.824,3.55625,
164.825,3.553125,
164.826,3.5625,
164.827,3.559375,
164.828,3.55,
164.829,3.54375,
164.83,3.565625,
164.831,3.565625,
164.832,3.55625,
164.833,3.55,
164.834,3.540625,
164.835,3.53125,
164.836,3.534375,
164.837,3.546875,
164.838,3.55,
164.839,3.55625,
164.84,3.559375,
164.841,3.55625,
164.842,3.540625,
164.843,3.54375,
164.844,3.546875,
164.845,3.55625,
164.846,3.5625,
164.847,3.559375,
164.848,3.559375,
164.849,3.546875,
164.85,3.540625,
164.851,3.540625,
164.852,3.54375,
164.853,3.54375,
164.854,3.54375,
164.855,3.55,
164.856,3.565625,
164.857,3.559375,
164.858,3.5625,
164.859,3.55,
164.86,3.540625,
164.861,3.54375,
164.862,3.553125,
164.863,3.55625,
164.864,3.546875,
164.865,3.546875,
164.866,3.55,
164.867,3.546875,
164.868,3.534375,
164.869,3.5375,
164.87,3.534375,
164.871,3.5375,
164.872,3.55625,
164.873,3.565625,
164.874,3.559375,
164.875,3.55,
164.876,3.55625,
164.877,3.553125,
164.878,3.546875,
164.879,3.54375,
164.88,3.55625,
164.881,3.5625,
164.882,3.559375,
164.883,3.553125,
164.884,3.54375,
164.885,3.534375,
164.886,3.528125,
164.887,3.540625,
164.888,3.546875,
164.889,3.553125,
164.89,3.55,
164.891,3.559375,
164.892,3.553125,
164.893,3.553125,
164.894,3.55625,
164.895,3.575,
164.896,3.584375,
164.897,3.6,
164.898,3.61875,
164.899,3.621875,
164.9,3.615625,
164.901,3.6125,
164.902,3.6,
164.903,3.565625,
164.904,3.55,
164.905,3.55,
164.906,3.565625,
164.907,3.5625,
164.908,3.553125,
164.909,3.54375,
164.91,3.5375,
164.911,3.534375,
164.912,3.5375,
164.913,3.534375,
164.914,3.525,
164.915,3.525,
164.916,3.528125,
164.917,3.528125,
164.918,3.5125,
164.919,3.515625,
164.92,3.528125,
164.921,3.53125,
164.922,3.54375,
164.923,3.55625,
164.924,3.546875,
164.925,3.540625,
164.926,3.55,
164.927,3.553125,
164.928,3.55625,
164.929,3.553125,
164.93,3.559375,
164.931,3.55625,
164.932,3.55625,
164.933,3.546875,
164.934,3.540625,
164.935,3.5375,
164.936,3.534375,
164.937,3.54375,
164.938,3.553125,
164.939,3.565625,
164.94,3.565625,
164.941,3.578125,
164.942,3.625,
164.943,3.75625,
164.944,3.99375,
164.945,4.209375,
164.946,4.246875,
164.947,4.05625,
164.948,3.725,
164.949,3.44375,
164.95,3.390625,
164.951,3.503125,
164.952,3.628125,
164.953,3.6625,
164.954,3.65,
164.955,3.625,
164.956,3.60625,
164.957,3.5875,
164.958,3.5625,
164.959,3.559375,
164.96,3.55625,
164.961,3.540625,
164.962,3.528125,
164.963,3.51875,
164.964,3.515625,
164.965,3.521875,
164.966,3.521875,
164.967,3.50625,
164.968,3.484375,
164.969,3.4875,
164.97,3.490625,
164.971,3.496875,
164.972,3.50625,
164.973,3.496875,
164.974,3.49375,
164.975,3.49375,
164.976,3.5,
164.977,3.51875,
164.978,3.51875,
164.979,3.515625,
164.98,3.51875,
164.981,3.51875,
164.982,3.5125,
164.983,3.5,
164.984,3.509375,
164.985,3.515625,
164.986,3.5,
164.987,3.50625,
164.988,3.521875,
164.989,3.528125,
164.99,3.534375,
164.991,3.540625,
164.992,3.540625,
164.993,3.540625,
164.994,3.5375,
164.995,3.54375,
164.996,3.540625,
164.997,3.540625,
164.998,3.5375,
164.999,3.546875,
165,3.54375,
165.001,3.5375,
165.002,3.53125,
165.003,3.521875,
165.004,3.528125,
165.005,3.546875,
165.006,3.55625,
165.007,3.55,
165.008,3.54375,
165.009,3.5375,
165.01,3.53125,
165.011,3.53125,
165.012,3.534375,
165.013,3.55,
165.014,3.54375,
165.015,3.540625,
165.016,3.54375,
165.017,3.546875,
165.018,3.546875,
165.019,3.534375,
165.02,3.5375,
165.021,3.5375,
165.022,3.54375,
165.023,3.553125,
165.024,3.55625,
165.025,3.55,
165.026,3.55,
165.027,3.546875,
165.028,3.55,
165.029,3.54375,
165.03,3.55,
165.031,3.546875,
165.032,3.54375,
165.033,3.540625,
165.034,3.546875,
165.035,3.546875,
165.036,3.53125,
165.037,3.528125,
165.038,3.54375,
165.039,3.559375,
165.04,3.55625,
165.041,3.55,
165.042,3.540625,
165.043,3.540625,
165.044,3.54375,
165.045,3.54375,
165.046,3.546875,
165.047,3.540625,
165.048,3.546875,
165.049,3.55,
165.05,3.54375,
165.051,3.534375,
165.052,3.53125,
165.053,3.53125,
165.054,3.53125,
165.055,3.5375,
165.056,3.55,
165.057,3.54375,
165.058,3.54375,
165.059,3.55,
165.06,3.55625,
165.061,3.55,
165.062,3.55,
165.063,3.55625,
165.064,3.546875,
165.065,3.5375,
165.066,3.540625,
165.067,3.546875,
165.068,3.54375,
165.069,3.546875,
165.07,3.56875,
165.071,3.578125,
165.072,3.603125,
165.073,3.61875,
165.074,3.63125,
165.075,3.621875,
165.076,3.609375,
165.077,3.590625,
165.078,3.578125,
165.079,3.559375,
165.08,3.553125,
165.081,3.559375,
165.082,3.55,
165.083,3.5375,
165.084,3.528125,
165.085,3.521875,
165.086,3.5125,
165.087,3.509375,
165.088,3.509375,
165.089,3.51875,
165.09,3.521875,
165.091,3.525,
165.092,3.534375,
165.093,3.534375,
165.094,3.521875,
165.095,3.525,
165.096,3.534375,
165.097,3.540625,
165.098,3.546875,
165.099,3.546875,
165.1,3.534375,
165.101,3.525,
165.102,3.521875,
165.103,3.528125,
165.104,3.53125,
165.105,3.534375,
165.106,3.546875,
165.107,3.546875,
165.108,3.5375,
165.109,3.54375,
165.11,3.559375,
165.111,3.55,
165.112,3.546875,
165.113,3.553125,
165.114,3.559375,
165.115,3.553125,
165.116,3.5875,
165.117,3.709375,
165.118,3.909375,
165.119,4.115625,
165.12,4.18125,
165.121,4.053125,
165.122,3.725,
165.123,3.41875,
165.124,3.371875,
165.125,3.484375,
165.126,3.615625,
165.127,3.665625,
165.128,3.659375,
165.129,3.625,
165.13,3.59375,
165.131,3.578125,
165.132,3.553125,
165.133,3.540625,
165.134,3.525,
165.135,3.51875,
165.136,3.496875,
165.137,3.490625,
165.138,3.490625,
165.139,3.503125,
165.14,3.503125,
165.141,3.503125,
165.142,3.5125,
165.143,3.503125,
165.144,3.50625,
165.145,3.5,
165.146,3.50625,
165.147,3.5,
165.148,3.51875,
165.149,3.509375,
165.15,3.503125,
165.151,3.4875,
165.152,3.484375,
165.153,3.48125,
165.154,3.484375,
165.155,3.49375,
165.156,3.5125,
165.157,3.515625,
165.158,3.51875,
165.159,3.51875,
165.16,3.528125,
165.161,3.525,
165.162,3.525,
165.163,3.53125,
165.164,3.5375,
165.165,3.5375,
165.166,3.54375,
165.167,3.534375,
165.168,3.525,
165.169,3.496875,
165.17,3.5,
165.171,3.515625,
165.172,3.534375,
165.173,3.5375,
165.174,3.546875,
165.175,3.55,
165.176,3.54375,
165.177,3.54375,
165.178,3.55,
165.179,3.546875,
165.18,3.55,
165.181,3.55,
165.182,3.546875,
165.183,3.54375,
165.184,3.5375,
165.185,3.54375,
165.186,3.528125,
165.187,3.521875,
165.188,3.5375,
165.189,3.546875,
165.19,3.55,
165.191,3.559375,
165.192,3.565625,
165.193,3.559375,
165.194,3.553125,
165.195,3.55625,
165.196,3.5625,
165.197,3.559375,
165.198,3.553125,
165.199,3.553125,
165.2,3.55625,
165.201,3.546875,
165.202,3.5375,
165.203,3.5375,
165.204,3.5375,
165.205,3.55,
165.206,3.553125,
165.207,3.55625,
165.208,3.559375,
165.209,3.55625,
165.21,3.55625,
165.211,3.553125,
165.212,3.553125,
165.213,3.56875,
165.214,3.571875,
165.215,3.55625,
165.216,3.55,
165.217,3.553125,
165.218,3.54375,
165.219,3.53125,
165.22,3.5375,
165.221,3.546875,
165.222,3.553125,
165.223,3.55,
165.224,3.546875,
165.225,3.553125,
165.226,3.54375,
165.227,3.546875,
165.228,3.546875,
165.229,3.55,
165.23,3.553125,
165.231,3.55625,
165.232,3.559375,
165.233,3.553125,
165.234,3.55,
165.235,3.553125,
165.236,3.534375,
165.237,3.53125,
165.238,3.5375,
165.239,3.55625,
165.24,3.553125,
165.241,3.546875,
165.242,3.55625,
165.243,3.553125,
165.244,3.553125,
165.245,3.55625,
165.246,3.571875,
165.247,3.56875,
165.248,3.56875,
165.249,3.56875,
165.25,3.578125,
165.251,3.584375,
165.252,3.5875,
165.253,3.603125,
165.254,3.6125,
165.255,3.61875,
165.256,3.61875,
165.257,3.596875,
165.258,3.56875,
165.259,3.559375,
165.26,3.571875,
165.261,3.575,
165.262,3.5625,
165.263,3.559375,
165.264,3.55625,
165.265,3.540625,
165.266,3.5375,
165.267,3.534375,
165.268,3.53125,
165.269,3.515625,
165.27,3.515625,
165.271,3.53125,
165.272,3.540625,
165.273,3.54375,
165.274,3.55,
165.275,3.553125,
165.276,3.559375,
165.277,3.55625,
165.278,3.55625,
165.279,3.5625,
165.28,3.559375,
165.281,3.56875,
165.282,3.5625,
165.283,3.55,
165.284,3.553125,
165.285,3.553125,
165.286,3.5375,
165.287,3.53125,
165.288,3.54375,
165.289,3.559375,
165.29,3.565625,
165.291,3.559375,
165.292,3.5625,
165.293,3.5625,
165.294,3.55625,
165.295,3.565625,
165.296,3.590625,
165.297,3.659375,
165.298,3.83125,
165.299,4.08125,
165.3,4.26875,
165.301,4.24375,
165.302,3.990625,
165.303,3.63125,
165.304,3.39375,
165.305,3.4125,
165.306,3.559375,
165.307,3.671875,
165.308,3.690625,
165.309,3.665625,
165.31,3.63125,
165.311,3.603125,
165.312,3.584375,
165.313,3.571875,
165.314,3.571875,
165.315,3.559375,
165.316,3.546875,
165.317,3.534375,
165.318,3.525,
165.319,3.50625,
165.32,3.5,
165.321,3.503125,
165.322,3.5125,
165.323,3.5125,
165.324,3.51875,
165.325,3.521875,
165.326,3.515625,
165.327,3.509375,
165.328,3.5125,
165.329,3.50625,
165.33,3.5,
165.331,3.50625,
165.332,3.521875,
165.333,3.51875,
165.334,3.50625,
165.335,3.509375,
165.336,3.5,
165.337,3.5,
165.338,3.5125,
165.339,3.525,
165.34,3.534375,
165.341,3.525,
165.342,3.521875,
165.343,3.51875,
165.344,3.521875,
165.345,3.51875,
165.346,3.5375,
165.347,3.546875,
165.348,3.5375,
165.349,3.546875,
165.35,3.553125,
165.351,3.546875,
165.352,3.534375,
165.353,3.525,
165.354,3.53125,
165.355,3.54375,
165.356,3.55625,
165.357,3.5625,
165.358,3.546875,
165.359,3.546875,
165.36,3.553125,
165.361,3.559375,
165.362,3.55,
165.363,3.553125,
165.364,3.559375,
165.365,3.55,
165.366,3.5375,
165.367,3.54375,
165.368,3.55,
165.369,3.5375,
165.37,3.534375,
165.371,3.54375,
165.372,3.55,
165.373,3.55,
165.374,3.553125,
165.375,3.5625,
165.376,3.546875,
165.377,3.55,
165.378,3.55,
165.379,3.55,
165.38,3.55,
165.381,3.553125,
165.382,3.55625,
165.383,3.55,
165.384,3.5375,
165.385,3.540625,
165.386,3.540625,
165.387,3.534375,
165.388,3.5375,
165.389,3.55625,
165.39,3.55625,
165.391,3.553125,
165.392,3.559375,
165.393,3.559375,
165.394,3.5625,
165.395,3.55625,
165.396,3.55625,
165.397,3.5625,
165.398,3.559375,
165.399,3.553125,
165.4,3.55,
165.401,3.534375,
165.402,3.528125,
165.403,3.521875,
165.404,3.525,
165.405,3.525,
165.406,3.546875,
165.407,3.565625,
165.408,3.55,
165.409,3.546875,
165.41,3.553125,
165.411,3.559375,
165.412,3.546875,
165.413,3.546875,
165.414,3.5625,
165.415,3.5625,
165.416,3.553125,
165.417,3.546875,
165.418,3.55,
165.419,3.5375,
165.42,3.53125,
165.421,3.540625,
165.422,3.553125,
165.423,3.55,
165.424,3.54375,
165.425,3.5625,
165.426,3.5625,
165.427,3.56875,
165.428,3.596875,
165.429,3.615625,
165.43,3.621875,
165.431,3.628125,
165.432,3.628125,
165.433,3.60625,
165.434,3.575,
165.435,3.553125,
165.436,3.553125,
165.437,3.553125,
165.438,3.559375,
165.439,3.56875,
165.44,3.5625,
165.441,3.54375,
165.442,3.534375,
165.443,3.534375,
165.444,3.534375,
165.445,3.525,
165.446,3.534375,
165.447,3.5375,
165.448,3.546875,
165.449,3.5375,
165.45,3.5375,
165.451,3.540625,
165.452,3.525,
165.453,3.515625,
165.454,3.51875,
165.455,3.534375,
165.456,3.540625,
165.457,3.553125,
165.458,3.546875,
165.459,3.540625,
165.46,3.559375,
165.461,3.56875,
165.462,3.5625,
165.463,3.553125,
165.464,3.56875,
165.465,3.565625,
165.466,3.559375,
165.467,3.55625,
165.468,3.55625,
165.469,3.540625,
165.47,3.5375,
165.471,3.559375,
165.472,3.58125,
165.473,3.625,
165.474,3.753125,
165.475,3.98125,
165.476,4.196875,
165.477,4.25,
165.478,4.0875,
165.479,3.76875,
165.48,3.465625,
165.481,3.4,
165.482,3.521875,
165.483,3.646875,
165.484,3.68125,
165.485,3.65625,
165.486,3.609375,
165.487,3.56875,
165.488,3.5625,
165.489,3.559375,
165.49,3.559375,
165.491,3.540625,
165.492,3.5375,
165.493,3.534375,
165.494,3.521875,
165.495,3.515625,
165.496,3.515625,
165.497,3.521875,
165.498,3.5,
165.499,3.5,
165.5,3.50625,
165.501,3.503125,
165.502,3.490625,
165.503,3.478125,
165.504,3.48125,
165.505,3.484375,
165.506,3.4875,
165.507,3.503125,
165.508,3.509375,
165.509,3.50625,
165.51,3.496875,
165.511,3.503125,
165.512,3.509375,
165.513,3.509375,
165.514,3.51875,
165.515,3.528125,
165.516,3.5125,
165.517,3.503125,
165.518,3.509375,
165.519,3.509375,
165.52,3.503125,
165.521,3.51875,
165.522,3.534375,
165.523,3.53125,
165.524,3.51875,
165.525,3.53125,
165.526,3.5375,
165.527,3.534375,
165.528,3.540625,
165.529,3.553125,
165.53,3.54375,
165.531,3.5375,
165.532,3.546875,
165.533,3.553125,
165.534,3.5375,
165.535,3.525,
165.536,3.525,
165.537,3.521875,
165.538,3.5375,
165.539,3.559375,
165.54,3.565625,
165.541,3.559375,
165.542,3.553125,
165.543,3.553125,
165.544,3.55625,
165.545,3.55,
165.546,3.55625,
165.547,3.55,
165.548,3.5375,
165.549,3.54375,
165.55,3.540625,
165.551,3.54375,
165.552,3.534375,
165.553,3.521875,
165.554,3.534375,
165.555,3.54375,
165.556,3.540625,
165.557,3.55,
165.558,3.55,
165.559,3.5375,
165.56,3.54375,
165.561,3.546875,
165.562,3.546875,
165.563,3.54375,
165.564,3.553125,
165.565,3.559375,
165.566,3.55625,
165.567,3.54375,
165.568,3.53125,
165.569,3.534375,
165.57,3.528125,
165.571,3.540625,
165.572,3.55,
165.573,3.54375,
165.574,3.540625,
165.575,3.540625,
165.576,3.54375,
165.577,3.540625,
165.578,3.54375,
165.579,3.553125,
165.58,3.546875,
165.581,3.54375,
165.582,3.5375,
165.583,3.540625,
165.584,3.5375,
165.585,3.53125,
165.586,3.534375,
165.587,3.534375,
165.588,3.5375,
165.589,3.55,
165.59,3.5625,
165.591,3.553125,
165.592,3.546875,
165.593,3.540625,
165.594,3.534375,
165.595,3.53125,
165.596,3.53125,
165.597,3.55,
165.598,3.54375,
165.599,3.546875,
165.6,3.54375,
165.601,3.546875,
165.602,3.5375,
165.603,3.540625,
165.604,3.55625,
165.605,3.571875,
165.606,3.6125,
165.607,3.634375,
165.608,3.64375,
165.609,3.61875,
165.61,3.596875,
165.611,3.58125,
165.612,3.565625,
165.613,3.55,
165.614,3.55,
165.615,3.553125,
165.616,3.55,
165.617,3.528125,
165.618,3.525,
165.619,3.51875,
165.62,3.5125,
165.621,3.521875,
165.622,3.525,
165.623,3.525,
165.624,3.525,
165.625,3.53125,
165.626,3.5375,
165.627,3.528125,
165.628,3.53125,
165.629,3.540625,
165.63,3.5375,
165.631,3.525,
165.632,3.528125,
165.633,3.534375,
165.634,3.534375,
165.635,3.53125,
165.636,3.53125,
165.637,3.546875,
165.638,3.546875,
165.639,3.55,
165.64,3.559375,
165.641,3.553125,
165.642,3.546875,
165.643,3.55625,
165.644,3.553125,
165.645,3.553125,
165.646,3.55,
165.647,3.55625,
165.648,3.5625,
165.649,3.559375,
165.65,3.59375,
165.651,3.709375,
165.652,3.909375,
165.653,4.115625,
165.654,4.18125,
165.655,4.040625,
165.656,3.725,
165.657,3.428125,
165.658,3.375,
165.659,3.49375,
165.66,3.6125,
165.661,3.65625,
165.662,3.6625,
165.663,3.634375,
165.664,3.6,
165.665,3.58125,
165.666,3.55625,
165.667,3.546875,
165.668,3.53125,
165.669,3.5125,
165.67,3.49375,
165.671,3.5,
165.672,3.50625,
165.673,3.515625,
165.674,3.509375,
165.675,3.50625,
165.676,3.5125,
165.677,3.5,
165.678,3.490625,
165.679,3.4875,
165.68,3.496875,
165.681,3.503125,
165.682,3.50625,
165.683,3.5125,
165.684,3.503125,
165.685,3.484375,
165.686,3.471875,
165.687,3.48125,
165.688,3.49375,
165.689,3.50625,
165.69,3.515625,
165.691,3.5125,
165.692,3.509375,
165.693,3.509375,
165.694,3.5125,
165.695,3.51875,
165.696,3.525,
165.697,3.5375,
165.698,3.55,
165.699,3.54375,
165.7,3.528125,
165.701,3.528125,
165.702,3.5125,
165.703,3.509375,
165.704,3.525,
165.705,3.5375,
165.706,3.54375,
165.707,3.54375,
165.708,3.55625,
165.709,3.55625,
165.71,3.54375,
165.711,3.553125,
165.712,3.55625,
165.713,3.55625,
165.714,3.546875,
165.715,3.546875,
165.716,3.546875,
165.717,3.54375,
165.718,3.540625,
165.719,3.53125,
165.72,3.528125,
165.721,3.534375,
165.722,3.54375,
165.723,3.553125,
165.724,3.55,
165.725,3.546875,
165.726,3.55625,
165.727,3.559375,
165.728,3.559375,
165.729,3.559375,
165.73,3.559375,
165.731,3.55625,
165.732,3.565625,
165.733,3.575,
165.734,3.559375,
165.735,3.5375,
165.736,3.528125,
165.737,3.540625,
165.738,3.55,
165.739,3.55625,
165.74,3.55625,
165.741,3.559375,
165.742,3.553125,
165.743,3.55,
165.744,3.54375,
165.745,3.546875,
165.746,3.55,
165.747,3.55625,
165.748,3.5625,
165.749,3.55625,
165.75,3.553125,
165.751,3.546875,
165.752,3.5375,
165.753,3.528125,
165.754,3.528125,
165.755,3.546875,
165.756,3.55,
165.757,3.559375,
165.758,3.5625,
165.759,3.553125,
165.76,3.55625,
165.761,3.559375,
165.762,3.5625,
165.763,3.553125,
165.764,3.55625,
165.765,3.559375,
165.766,3.5625,
165.767,3.559375,
165.768,3.546875,
165.769,3.546875,
165.77,3.540625,
165.771,3.546875,
165.772,3.5625,
165.773,3.578125,
165.774,3.56875,
165.775,3.559375,
165.776,3.5625,
165.777,3.559375,
165.778,3.55625,
165.779,3.55625,
165.78,3.559375,
165.781,3.55,
165.782,3.55,
165.783,3.553125,
165.784,3.55,
165.785,3.5375,
165.786,3.54375,
165.787,3.56875,
165.788,3.590625,
165.789,3.609375,
165.79,3.628125,
165.791,3.628125,
165.792,3.625,
165.793,3.603125,
165.794,3.584375,
165.795,3.56875,
165.796,3.559375,
165.797,3.565625,
165.798,3.571875,
165.799,3.5625,
165.8,3.559375,
165.801,3.54375,
165.802,3.53125,
165.803,3.51875,
165.804,3.525,
165.805,3.53125,
165.806,3.53125,
165.807,3.54375,
165.808,3.553125,
165.809,3.55,
165.81,3.5375,
165.811,3.540625,
165.812,3.553125,
165.813,3.553125,
165.814,3.553125,
165.815,3.553125,
165.816,3.553125,
165.817,3.55,
165.818,3.5375,
165.819,3.54375,
165.82,3.540625,
165.821,3.540625,
165.822,3.54375,
165.823,3.5625,
165.824,3.571875,
165.825,3.565625,
165.826,3.575,
165.827,3.578125,
165.828,3.56875,
165.829,3.571875,
165.83,3.575,
165.831,3.56875,
165.832,3.575,
165.833,3.628125,
165.834,3.778125,
165.835,4.003125,
165.836,4.203125,
165.837,4.25,
165.838,4.05625,
165.839,3.71875,
165.84,3.459375,
165.841,3.4375,
165.842,3.54375,
165.843,3.646875,
165.844,3.675,
165.845,3.6625,
165.846,3.625,
165.847,3.590625,
165.848,3.58125,
165.849,3.565625,
165.85,3.540625,
165.851,3.528125,
165.852,3.525,
165.853,3.51875,
165.854,3.525,
165.855,3.528125,
165.856,3.528125,
165.857,3.528125,
165.858,3.534375,
165.859,3.528125,
165.86,3.51875,
165.861,3.503125,
165.862,3.509375,
165.863,3.5125,
165.864,3.509375,
165.865,3.5125,
165.866,3.50625,
165.867,3.490625,
165.868,3.48125,
165.869,3.478125,
165.87,3.490625,
165.871,3.49375,
165.872,3.5,
165.873,3.51875,
165.874,3.534375,
165.875,3.53125,
165.876,3.534375,
165.877,3.534375,
165.878,3.528125,
165.879,3.528125,
165.88,3.546875,
165.881,3.553125,
165.882,3.5375,
165.883,3.53125,
165.884,3.5375,
165.885,3.525,
165.886,3.515625,
165.887,3.525,
165.888,3.5375,
165.889,3.55625,
165.89,3.575,
165.891,3.5875,
165.892,3.571875,
165.893,3.559375,
165.894,3.553125,
165.895,3.565625,
165.896,3.565625,
165.897,3.559375,
165.898,3.5625,
165.899,3.559375,
165.9,3.55625,
165.901,3.55,
165.902,3.546875,
165.903,3.528125,
165.904,3.540625,
165.905,3.553125,
165.906,3.565625,
165.907,3.56875,
165.908,3.56875,
165.909,3.575,
165.91,3.571875,
165.911,3.559375,
165.912,3.559375,
165.913,3.55625,
165.914,3.55,
165.915,3.553125,
165.916,3.55625,
165.917,3.546875,
165.918,3.54375,
165.919,3.534375,
165.92,3.534375,
165.921,3.540625,
165.922,3.55,
165.923,3.56875,
165.924,3.56875,
165.925,3.559375,
165.926,3.546875,
165.927,3.55625,
165.928,3.55625,
165.929,3.5625,
165.93,3.565625,
165.931,3.559375,
165.932,3.5625,
165.933,3.565625,
165.934,3.565625,
165.935,3.55625,
165.936,3.5375,
165.937,3.540625,
165.938,3.54375,
165.939,3.553125,
165.94,3.55625,
165.941,3.571875,
165.942,3.553125,
165.943,3.54375,
165.944,3.546875,
165.945,3.559375,
165.946,3.553125,
165.947,3.546875,
165.948,3.55625,
165.949,3.559375,
165.95,3.559375,
165.951,3.540625,
165.952,3.534375,
165.953,3.528125,
165.954,3.53125,
165.955,3.55,
165.956,3.5625,
165.957,3.565625,
165.958,3.565625,
165.959,3.56875,
165.96,3.565625,
165.961,3.5625,
165.962,3.56875,
165.963,3.571875,
165.964,3.56875,
165.965,3.575,
165.966,3.596875,
165.967,3.6125,
165.968,3.60625,
165.969,3.60625,
165.97,3.609375,
165.971,3.603125,
165.972,3.596875,
165.973,3.596875,
165.974,3.59375,
165.975,3.578125,
165.976,3.578125,
165.977,3.575,
165.978,3.565625,
165.979,3.5625,
165.98,3.5625,
165.981,3.559375,
165.982,3.534375,
165.983,3.534375,
165.984,3.528125,
165.985,3.525,
165.986,3.51875,
165.987,3.51875,
165.988,3.528125,
165.989,3.55,
165.99,3.5625,
165.991,3.56875,
165.992,3.559375,
165.993,3.546875,
165.994,3.553125,
165.995,3.55625,
165.996,3.55,
165.997,3.559375,
165.998,3.559375,
165.999,3.559375,
166,3.55625,
166.001,3.54375,
166.002,3.54375,
166.003,3.528125,
166.004,3.5375,
166.005,3.546875,
166.006,3.565625,
166.007,3.575,
166.008,3.56875,
166.009,3.571875,
166.01,3.571875,
166.011,3.590625,
166.012,3.665625,
166.013,3.84375,
166.014,4.06875,
166.015,4.253125,
166.016,4.2375,
166.017,4.00625,
166.018,3.640625,
166.019,3.4,
166.02,3.415625,
166.021,3.55,
166.022,3.653125,
166.023,3.68125,
166.024,3.6625,
166.025,3.625,
166.026,3.596875,
166.027,3.578125,
166.028,3.565625,
166.029,3.559375,
166.03,3.559375,
166.031,3.55,
166.032,3.54375,
166.033,3.5375,
166.034,3.521875,
166.035,3.50625,
166.036,3.484375,
166.037,3.48125,
166.038,3.4875,
166.039,3.49375,
166.04,3.5,
166.041,3.509375,
166.042,3.509375,
166.043,3.50625,
166.044,3.496875,
166.045,3.496875,
166.046,3.4875,
166.047,3.496875,
166.048,3.50625,
166.049,3.5125,
166.05,3.509375,
166.051,3.503125,
166.052,3.496875,
166.053,3.496875,
166.054,3.503125,
166.055,3.525,
166.056,3.546875,
166.057,3.54375,
166.058,3.54375,
166.059,3.5375,
166.06,3.53125,
166.061,3.528125,
166.062,3.540625,
166.063,3.55625,
166.064,3.55,
166.065,3.55,
166.066,3.546875,
166.067,3.546875,
166.068,3.534375,
166.069,3.525,
166.07,3.528125,
166.071,3.528125,
166.072,3.540625,
166.073,3.553125,
166.074,3.55625,
166.075,3.55,
166.076,3.540625,
166.077,3.546875,
166.078,3.5625,
166.079,3.553125,
166.08,3.54375,
166.081,3.553125,
166.082,3.553125,
166.083,3.553125,
166.084,3.546875,
166.085,3.540625,
166.086,3.525,
166.087,3.528125,
166.088,3.540625,
166.089,3.55,
166.09,3.55,
166.091,3.559375,
166.092,3.565625,
166.093,3.553125,
166.094,3.55,
166.095,3.553125,
166.096,3.546875,
166.097,3.546875,
166.098,3.553125,
166.099,3.565625,
166.1,3.546875,
166.101,3.54375,
166.102,3.540625,
166.103,3.521875,
166.104,3.521875,
166.105,3.53125,
166.106,3.546875,
166.107,3.5625,
166.108,3.5625,
166.109,3.553125,
166.11,3.553125,
166.111,3.5375,
166.112,3.5375,
166.113,3.55625,
166.114,3.56875,
166.115,3.559375,
166.116,3.546875,
166.117,3.55,
166.118,3.540625,
166.119,3.528125,
166.12,3.534375,
166.121,3.534375,
166.122,3.55,
166.123,3.55625,
166.124,3.56875,
166.125,3.55625,
166.126,3.546875,
166.127,3.55,
166.128,3.559375,
166.129,3.553125,
166.13,3.553125,
166.131,3.565625,
166.132,3.553125,
166.133,3.540625,
166.134,3.54375,
166.135,3.5375,
166.136,3.525,
166.137,3.53125,
166.138,3.5375,
166.139,3.55625,
166.14,3.55625,
166.141,3.575,
166.142,3.59375,
166.143,3.60625,
166.144,3.609375,
166.145,3.6125,
166.146,3.61875,
166.147,3.603125,
166.148,3.584375,
166.149,3.5625,
166.15,3.553125,
166.151,3.55,
166.152,3.546875,
166.153,3.5375,
166.154,3.528125,
166.155,3.521875,
166.156,3.525,
166.157,3.525,
166.158,3.515625,
166.159,3.525,
166.16,3.53125,
166.161,3.534375,
166.162,3.540625,
166.163,3.534375,
166.164,3.528125,
166.165,3.525,
166.166,3.540625,
166.167,3.534375,
166.168,3.521875,
166.169,3.5125,
166.17,3.521875,
166.171,3.525,
166.172,3.53125,
166.173,3.54375,
166.174,3.55,
166.175,3.55,
166.176,3.546875,
166.177,3.546875,
166.178,3.5625,
166.179,3.55,
166.18,3.546875,
166.181,3.55,
166.182,3.553125,
166.183,3.55,
166.184,3.546875,
166.185,3.553125,
166.186,3.553125,
166.187,3.63125,
166.188,3.80625,
166.189,4.04375,
166.19,4.19375,
166.191,4.14375,
166.192,3.903125,
166.193,3.5375,
166.194,3.353125,
166.195,3.415625,
166.196,3.56875,
166.197,3.6625,
166.198,3.675,
166.199,3.6375,
166.2,3.6,
166.201,3.565625,
166.202,3.5375,
166.203,3.540625,
166.204,3.5375,
166.205,3.534375,
166.206,3.54375,
166.207,3.54375,
166.208,3.53125,
166.209,3.51875,
166.21,3.509375,
166.211,3.50625,
166.212,3.509375,
166.213,3.509375,
166.214,3.503125,
166.215,3.49375,
166.216,3.490625,
166.217,3.4875,
166.218,3.478125,
166.219,3.465625,
166.22,3.478125,
166.221,3.48125,
166.222,3.4875,
166.223,3.5,
166.224,3.509375,
166.225,3.5125,
166.226,3.49375,
166.227,3.5,
166.228,3.509375,
166.229,3.5125,
166.23,3.50625,
166.231,3.509375,
166.232,3.515625,
166.233,3.515625,
166.234,3.509375,
166.235,3.5125,
166.236,3.509375,
166.237,3.5,
166.238,3.50625,
166.239,3.525,
166.24,3.534375,
166.241,3.534375,
166.242,3.540625,
166.243,3.5375,
166.244,3.5375,
166.245,3.540625,
166.246,3.553125,
166.247,3.546875,
166.248,3.546875,
166.249,3.546875,
166.25,3.546875,
166.251,3.5375,
166.252,3.540625,
166.253,3.5375,
166.254,3.525,
166.255,3.515625,
166.256,3.5375,
166.257,3.55625,
166.258,3.540625,
166.259,3.540625,
166.26,3.540625,
166.261,3.534375,
166.262,3.534375,
166.263,3.5375,
166.264,3.55,
166.265,3.546875,
166.266,3.553125,
166.267,3.540625,
166.268,3.528125,
166.269,3.521875,
166.27,3.525,
166.271,3.528125,
166.272,3.5375,
166.273,3.540625,
166.274,3.553125,
166.275,3.55,
166.276,3.5375,
166.277,3.553125,
166.278,3.553125,
166.279,3.553125,
166.28,3.55625,
166.281,3.559375,
166.282,3.5625,
166.283,3.553125,
166.284,3.540625,
166.285,3.540625,
166.286,3.528125,
166.287,3.525,
166.288,3.53125,
166.289,3.546875,
166.29,3.5625,
166.291,3.559375,
166.292,3.559375,
166.293,3.55625,
166.294,3.55625,
166.295,3.5625,
166.296,3.571875,
166.297,3.55625,
166.298,3.546875,
166.299,3.553125,
166.3,3.559375,
166.301,3.553125,
166.302,3.5375,
166.303,3.540625,
166.304,3.54375,
166.305,3.540625,
166.306,3.54375,
166.307,3.55625,
166.308,3.54375,
166.309,3.546875,
166.31,3.553125,
166.311,3.5625,
166.312,3.55,
166.313,3.553125,
166.314,3.5625,
166.315,3.55,
166.316,3.553125,
166.317,3.559375,
166.318,3.5625,
166.319,3.546875,
166.32,3.559375,
166.321,3.58125,
166.322,3.609375,
166.323,3.61875,
166.324,3.628125,
166.325,3.621875,
166.326,3.6,
166.327,3.578125,
166.328,3.565625,
166.329,3.5625,
166.33,3.55625,
166.331,3.546875,
166.332,3.5375,
166.333,3.540625,
166.334,3.534375,
166.335,3.525,
166.336,3.515625,
166.337,3.509375,
166.338,3.51875,
166.339,3.540625,
166.34,3.55,
166.341,3.546875,
166.342,3.546875,
166.343,3.54375,
166.344,3.54375,
166.345,3.540625,
166.346,3.553125,
166.347,3.55625,
166.348,3.55625,
166.349,3.553125,
166.35,3.553125,
166.351,3.5375,
166.352,3.534375,
166.353,3.54375,
166.354,3.540625,
166.355,3.546875,
166.356,3.55625,
166.357,3.56875,
166.358,3.559375,
166.359,3.55,
166.36,3.55625,
166.361,3.55625,
166.362,3.559375,
166.363,3.565625,
166.364,3.58125,
166.365,3.596875,
166.366,3.684375,
166.367,3.875,
166.368,4.121875,
166.369,4.259375,
166.37,4.19375,
166.371,3.928125,
166.372,3.571875,
166.373,3.4,
166.374,3.46875,
166.375,3.60625,
166.376,3.675,
166.377,3.678125,
166.378,3.65,
166.379,3.61875,
166.38,3.596875,
166.381,3.584375,
166.382,3.58125,
166.383,3.55625,
166.384,3.534375,
166.385,3.528125,
166.386,3.51875,
166.387,3.50625,
166.388,3.5125,
166.389,3.521875,
166.39,3.534375,
166.391,3.5125,
166.392,3.50625,
166.393,3.509375,
166.394,3.5125,
166.395,3.509375,
166.396,3.515625,
166.397,3.515625,
166.398,3.503125,
166.399,3.50625,
166.4,3.50625,
166.401,3.5,
166.402,3.475,
166.403,3.484375,
166.404,3.496875,
166.405,3.50625,
166.406,3.528125,
166.407,3.54375,
166.408,3.534375,
166.409,3.515625,
166.41,3.521875,
166.411,3.5375,
166.412,3.540625,
166.413,3.540625,
166.414,3.546875,
166.415,3.5375,
166.416,3.5375,
166.417,3.5375,
166.418,3.540625,
166.419,3.51875,
166.42,3.509375,
166.421,3.515625,
166.422,3.528125,
166.423,3.540625,
166.424,3.55625,
166.425,3.56875,
166.426,3.55625,
166.427,3.553125,
166.428,3.540625,
166.429,3.55625,
166.43,3.55,
166.431,3.55625,
166.432,3.5625,
166.433,3.553125,
166.434,3.55,
166.435,3.55,
166.436,3.55,
166.437,3.528125,
166.438,3.534375,
166.439,3.55625,
166.44,3.5625,
166.441,3.559375,
166.442,3.559375,
166.443,3.553125,
166.444,3.553125,
166.445,3.553125,
166.446,3.5625,
166.447,3.56875,
166.448,3.553125,
166.449,3.55625,
166.45,3.559375,
166.451,3.546875,
166.452,3.528125,
166.453,3.51875,
166.454,3.525,
166.455,3.5375,
166.456,3.546875,
166.457,3.565625,
166.458,3.5625,
166.459,3.546875,
166.46,3.553125,
166.461,3.5625,
166.462,3.553125,
166.463,3.55625,
166.464,3.5625,
166.465,3.5625,
166.466,3.55,
166.467,3.546875,
166.468,3.546875,
166.469,3.525,
166.47,3.528125,
166.471,3.534375,
166.472,3.553125,
166.473,3.565625,
166.474,3.5625,
166.475,3.55625,
166.476,3.55,
166.477,3.55,
166.478,3.5625,
166.479,3.571875,
166.48,3.56875,
166.481,3.5625,
166.482,3.559375,
166.483,3.559375,
166.484,3.54375,
166.485,3.540625,
166.486,3.540625,
166.487,3.525,
166.488,3.534375,
166.489,3.553125,
166.49,3.565625,
166.491,3.559375,
166.492,3.55625,
166.493,3.5625,
166.494,3.559375,
166.495,3.55,
166.496,3.553125,
166.497,3.571875,
166.498,3.584375,
166.499,3.596875,
166.5,3.615625,
166.501,3.625,
166.502,3.6,
166.503,3.5875,
166.504,3.590625,
166.505,3.575,
166.506,3.575,
166.507,3.58125,
166.508,3.596875,
166.509,3.578125,
166.51,3.56875,
166.511,3.559375,
166.512,3.546875,
166.513,3.534375,
166.514,3.540625,
166.515,3.534375,
166.516,3.525,
166.517,3.515625,
166.518,3.51875,
166.519,3.5125,
166.52,3.5125,
166.521,3.521875,
166.522,3.55,
166.523,3.546875,
166.524,3.553125,
166.525,3.559375,
166.526,3.55,
166.527,3.546875,
166.528,3.55,
166.529,3.559375,
166.53,3.559375,
166.531,3.55625,
166.532,3.565625,
166.533,3.5625,
166.534,3.55625,
166.535,3.540625,
166.536,3.53125,
166.537,3.53125,
166.538,3.540625,
166.539,3.55625,
166.54,3.571875,
166.541,3.56875,
166.542,3.571875,
166.543,3.59375,
166.544,3.66875,
166.545,3.840625,
166.546,4.0875,
166.547,4.271875,
166.548,4.24375,
166.549,3.99375,
166.55,3.6375,
166.551,3.40625,
166.552,3.415625,
166.553,3.546875,
166.554,3.65625,
166.555,3.675,
166.556,3.659375,
166.557,3.65,
166.558,3.621875,
166.559,3.584375,
166.56,3.55625,
166.561,3.553125,
166.562,3.54375,
166.563,3.528125,
166.564,3.534375,
166.565,3.53125,
166.566,3.525,
166.567,3.5125,
166.568,3.503125,
166.569,3.49375,
166.57,3.4875,
166.571,3.496875,
166.572,3.50625,
166.573,3.509375,
166.574,3.503125,
166.575,3.496875,
166.576,3.5,
166.577,3.5,
166.578,3.5,
166.579,3.515625,
166.58,3.509375,
166.581,3.503125,
166.582,3.5125,
166.583,3.51875,
166.584,3.509375,
166.585,3.503125,
166.586,3.503125,
166.587,3.496875,
166.588,3.496875,
166.589,3.521875,
166.59,3.534375,
166.591,3.540625,
166.592,3.5375,
166.593,3.5375,
166.594,3.5375,
166.595,3.54375,
166.596,3.540625,
166.597,3.55,
166.598,3.546875,
166.599,3.55,
166.6,3.540625,
166.601,3.54375,
166.602,3.53125,
166.603,3.521875,
166.604,3.53125,
166.605,3.540625,
166.606,3.553125,
166.607,3.559375,
166.608,3.5625,
166.609,3.55,
166.61,3.546875,
166.611,3.54375,
166.612,3.546875,
166.613,3.540625,
166.614,3.5375,
166.615,3.546875,
166.616,3.55,
166.617,3.546875,
166.618,3.5375,
166.619,3.53125,
166.62,3.525,
166.621,3.525,
166.622,3.546875,
166.623,3.559375,
166.624,3.55625,
166.625,3.553125,
166.626,3.5625,
166.627,3.553125,
166.628,3.55,
166.629,3.55,
166.63,3.55625,
166.631,3.55,
166.632,3.55,
166.633,3.55,
166.634,3.546875,
166.635,3.5375,
166.636,3.534375,
166.637,3.540625,
166.638,3.546875,
166.639,3.540625,
166.64,3.553125,
166.641,3.559375,
166.642,3.540625,
166.643,3.540625,
166.644,3.54375,
166.645,3.540625,
166.646,3.553125,
166.647,3.559375,
166.648,3.5625,
166.649,3.55,
166.65,3.540625,
166.651,3.534375,
166.652,3.528125,
166.653,3.53125,
166.654,3.5375,
166.655,3.5375,
166.656,3.540625,
166.657,3.540625,
166.658,3.55625,
166.659,3.546875,
166.66,3.540625,
166.661,3.5375,
166.662,3.546875,
166.663,3.54375,
166.664,3.54375,
166.665,3.546875,
166.666,3.553125,
166.667,3.540625,
166.668,3.53125,
166.669,3.534375,
166.67,3.534375,
166.671,3.5375,
166.672,3.553125,
166.673,3.58125,
166.674,3.6,
166.675,3.6125,
166.676,3.625,
166.677,3.621875,
166.678,3.615625,
166.679,3.603125,
166.68,3.590625,
166.681,3.565625,
166.682,3.565625,
166.683,3.565625,
166.684,3.55625,
166.685,3.5375,
166.686,3.525,
166.687,3.53125,
166.688,3.525,
166.689,3.528125,
166.69,3.546875,
166.691,3.5375,
166.692,3.521875,
166.693,3.51875,
166.694,3.51875,
166.695,3.53125,
166.696,3.53125,
166.697,3.54375,
166.698,3.5375,
166.699,3.5375,
166.7,3.546875,
166.701,3.546875,
166.702,3.5375,
166.703,3.521875,
166.704,3.525,
166.705,3.54375,
166.706,3.553125,
166.707,3.54375,
166.708,3.553125,
166.709,3.546875,
166.71,3.546875,
166.711,3.546875,
166.712,3.55,
166.713,3.546875,
166.714,3.546875,
166.715,3.553125,
166.716,3.55625,
166.717,3.546875,
166.718,3.546875,
166.719,3.61875,
166.72,3.771875,
166.721,4.00625,
166.722,4.1875,
166.723,4.1875,
166.724,3.959375,
166.725,3.609375,
166.726,3.3875,
166.727,3.4,
166.728,3.540625,
166.729,3.653125,
166.73,3.690625,
166.731,3.659375,
166.732,3.61875,
166.733,3.590625,
166.734,3.56875,
166.735,3.534375,
166.736,3.53125,
166.737,3.53125,
166.738,3.528125,
166.739,3.528125,
166.74,3.534375,
166.741,3.53125,
166.742,3.51875,
166.743,3.509375,
166.744,3.50625,
166.745,3.5,
166.746,3.503125,
166.747,3.5125,
166.748,3.509375,
166.749,3.5,
166.75,3.5,
166.751,3.496875,
166.752,3.4875,
166.753,3.478125,
166.754,3.4875,
166.755,3.503125,
166.756,3.509375,
166.757,3.50625,
166.758,3.51875,
166.759,3.51875,
166.76,3.509375,
166.761,3.509375,
166.762,3.525,
166.763,3.51875,
166.764,3.51875,
166.765,3.525,
166.766,3.525,
166.767,3.50625,
166.768,3.503125,
166.769,3.503125,
166.77,3.50625,
166.771,3.515625,
166.772,3.53125,
166.773,3.55,
166.774,3.55,
166.775,3.540625,
166.776,3.546875,
166.777,3.5375,
166.778,3.53125,
166.779,3.528125,
166.78,3.5375,
166.781,3.534375,
166.782,3.540625,
166.783,3.540625,
166.784,3.534375,
166.785,3.51875,
166.786,3.509375,
166.787,3.51875,
166.788,3.528125,
166.789,3.534375,
166.79,3.54375,
166.791,3.55,
166.792,3.540625,
166.793,3.53125,
166.794,3.5375,
166.795,3.546875,
166.796,3.5375,
166.797,3.55,
166.798,3.55,
166.799,3.55,
166.8,3.55,
166.801,3.54375,
166.802,3.534375,
166.803,3.51875,
166.804,3.521875,
166.805,3.540625,
166.806,3.540625,
166.807,3.540625,
166.808,3.540625,
166.809,3.5375,
166.81,3.5375,
166.811,3.5375,
166.812,3.54375,
166.813,3.55625,
166.814,3.55,
166.815,3.553125,
166.816,3.55,
166.817,3.540625,
166.818,3.528125,
166.819,3.528125,
166.82,3.525,
166.821,3.51875,
166.822,3.53125,
166.823,3.546875,
166.824,3.540625,
166.825,3.5375,
166.826,3.546875,
166.827,3.55,
166.828,3.546875,
166.829,3.546875,
166.83,3.553125,
166.831,3.55625,
166.832,3.546875,
166.833,3.546875,
166.834,3.54375,
166.835,3.534375,
166.836,3.51875,
166.837,3.53125,
166.838,3.5375,
166.839,3.546875,
166.84,3.5375,
166.841,3.553125,
166.842,3.546875,
166.843,3.55,
166.844,3.553125,
166.845,3.546875,
166.846,3.540625,
166.847,3.546875,
166.848,3.55,
166.849,3.553125,
166.85,3.540625,
166.851,3.540625,
166.852,3.55,
166.853,3.559375,
166.854,3.58125,
166.855,3.60625,
166.856,3.628125,
166.857,3.634375,
166.858,3.628125,
166.859,3.615625,
166.86,3.578125,
166.861,3.5625,
166.862,3.565625,
166.863,3.5625,
166.864,3.55625,
166.865,3.55,
166.866,3.546875,
166.867,3.53125,
166.868,3.525,
166.869,3.528125,
166.87,3.534375,
166.871,3.525,
166.872,3.53125,
166.873,3.534375,
166.874,3.534375,
166.875,3.53125,
166.876,3.5375,
166.877,3.55,
166.878,3.540625,
166.879,3.54375,
166.88,3.55,
166.881,3.55,
166.882,3.546875,
166.883,3.540625,
166.884,3.54375,
166.885,3.53125,
166.886,3.528125,
166.887,3.5375,
166.888,3.55,
166.889,3.55625,
166.89,3.5625,
166.891,3.55625,
166.892,3.546875,
166.893,3.5375,
166.894,3.553125,
166.895,3.55625,
166.896,3.55625,
166.897,3.559375,
166.898,3.578125,
166.899,3.60625,
166.9,3.725,
166.901,3.928125,
166.902,4.1625,
166.903,4.259375,
166.904,4.125,
166.905,3.8125,
166.906,3.490625,
166.907,3.38125,
166.908,3.48125,
166.909,3.603125,
166.91,3.659375,
166.911,3.6625,
166.912,3.646875,
166.913,3.621875,
166.914,3.584375,
166.915,3.565625,
166.916,3.559375,
166.917,3.546875,
166.918,3.525,
166.919,3.51875,
166.92,3.5125,
166.921,3.5125,
166.922,3.515625,
166.923,3.528125,
166.924,3.521875,
166.925,3.5125,
166.926,3.5125,
166.927,3.509375,
166.928,3.50625,
166.929,3.50625,
166.93,3.515625,
166.931,3.528125,
166.932,3.509375,
166.933,3.503125,
166.934,3.503125,
166.935,3.4875,
166.936,3.478125,
166.937,3.48125,
166.938,3.496875,
166.939,3.509375,
166.94,3.521875,
166.941,3.53125,
166.942,3.521875,
166.943,3.51875,
166.944,3.521875,
166.945,3.546875,
166.946,3.546875,
166.947,3.540625,
166.948,3.540625,
166.949,3.528125,
166.95,3.528125,
166.951,3.528125,
166.952,3.534375,
166.953,3.521875,
166.954,3.525,
166.955,3.5375,
166.956,3.546875,
166.957,3.55,
166.958,3.55,
166.959,3.553125,
166.96,3.55,
166.961,3.55,
166.962,3.559375,
166.963,3.565625,
166.964,3.55625,
166.965,3.553125,
166.966,3.553125,
166.967,3.55,
166.968,3.534375,
166.969,3.525,
166.97,3.525,
166.971,3.528125,
166.972,3.540625,
166.973,3.5625,
166.974,3.559375,
166.975,3.55,
166.976,3.55625,
166.977,3.546875,
166.978,3.54375,
166.979,3.540625,
166.98,3.55,
166.981,3.55625,
166.982,3.553125,
166.983,3.54375,
166.984,3.540625,
166.985,3.534375,
166.986,3.53125,
166.987,3.53125,
166.988,3.540625,
166.989,3.553125,
166.99,3.5625,
166.991,3.5625,
166.992,3.55625,
166.993,3.546875,
166.994,3.55,
166.995,3.565625,
166.996,3.559375,
166.997,3.55625,
166.998,3.559375,
166.999,3.553125,
167,3.540625,
167.001,3.53125,
167.002,3.534375,
167.003,3.521875,
167.004,3.521875,
167.005,3.54375,
167.006,3.559375,
167.007,3.55,
167.008,3.546875,
167.009,3.546875,
167.01,3.546875,
167.011,3.546875,
167.012,3.553125,
167.013,3.5625,
167.014,3.559375,
167.015,3.559375,
167.016,3.559375,
167.017,3.55625,
167.018,3.54375,
167.019,3.534375,
167.02,3.53125,
167.021,3.534375,
167.022,3.55,
167.023,3.5625,
167.024,3.56875,
167.025,3.553125,
167.026,3.553125,
167.027,3.553125,
167.028,3.553125,
167.029,3.55625,
167.03,3.559375,
167.031,3.56875,
167.032,3.56875,
167.033,3.578125,
167.034,3.596875,
167.035,3.59375,
167.036,3.5875,
167.037,3.59375,
167.038,3.59375,
167.039,3.590625,
167.04,3.575,
167.041,3.5625,
167.042,3.56875,
167.043,3.565625,
167.044,3.5625,
167.045,3.553125,
167.046,3.553125,
167.047,3.540625,
167.048,3.540625,
167.049,3.5375,
167.05,3.53125,
167.051,3.51875,
167.052,3.509375,
167.053,3.503125,
167.054,3.509375,
167.055,3.528125,
167.056,3.54375,
167.057,3.540625,
167.058,3.540625,
167.059,3.540625,
167.06,3.534375,
167.061,3.5375,
167.062,3.546875,
167.063,3.559375,
167.064,3.559375,
167.065,3.553125,
167.066,3.54375,
167.067,3.55,
167.068,3.546875,
167.069,3.534375,
167.07,3.5375,
167.071,3.53125,
167.072,3.54375,
167.073,3.553125,
167.074,3.55625,
167.075,3.5625,
167.076,3.559375,
167.077,3.56875,
167.078,3.625,
167.079,3.7625,
167.08,3.996875,
167.081,4.225,
167.082,4.29375,
167.083,4.128125,
167.084,3.778125,
167.085,3.45625,
167.086,3.365625,
167.087,3.484375,
167.088,3.63125,
167.089,3.690625,
167.09,3.66875,
167.091,3.6375,
167.092,3.61875,
167.093,3.6,
167.094,3.575,
167.095,3.55625,
167.096,3.546875,
167.097,3.53125,
167.098,3.53125,
167.099,3.53125,
167.1,3.521875,
167.101,3.5125,
167.102,3.503125,
167.103,3.490625,
167.104,3.49375,
167.105,3.496875,
167.106,3.509375,
167.107,3.5125,
167.108,3.50625,
167.109,3.50625,
167.11,3.503125,
167.111,3.509375,
167.112,3.5125,
167.113,3.50625,
167.114,3.50625,
167.115,3.509375,
167.116,3.515625,
167.117,3.525,
167.118,3.515625,
167.119,3.496875,
167.12,3.496875,
167.121,3.509375,
167.122,3.5125,
167.123,3.521875,
167.124,3.534375,
167.125,3.525,
167.126,3.528125,
167.127,3.5375,
167.128,3.54375,
167.129,3.54375,
167.13,3.546875,
167.131,3.5625,
167.132,3.559375,
167.133,3.55,
167.134,3.5375,
167.135,3.53125,
167.136,3.521875,
167.137,3.528125,
167.138,3.534375,
167.139,3.546875,
167.14,3.55625,
167.141,3.559375,
167.142,3.5625,
167.143,3.546875,
167.144,3.55,
167.145,3.553125,
167.146,3.5625,
167.147,3.559375,
167.148,3.559375,
167.149,3.56875,
167.15,3.571875,
167.151,3.546875,
167.152,3.540625,
167.153,3.521875,
167.154,3.521875,
167.155,3.53125,
167.156,3.55,
167.157,3.55625,
167.158,3.540625,
167.159,3.540625,
167.16,3.553125,
167.161,3.553125,
167.162,3.546875,
167.163,3.55,
167.164,3.553125,
167.165,3.5375,
167.166,3.540625,
167.167,3.540625,
167.168,3.540625,
167.169,3.53125,
167.17,3.528125,
167.171,3.534375,
167.172,3.53125,
167.173,3.540625,
167.174,3.553125,
167.175,3.54375,
167.176,3.540625,
167.177,3.54375,
167.178,3.55625,
167.179,3.55625,
167.18,3.54375,
167.181,3.55,
167.182,3.553125,
167.183,3.55,
167.184,3.54375,
167.185,3.54375,
167.186,3.525,
167.187,3.528125,
167.188,3.540625,
167.189,3.55625,
167.19,3.559375,
167.191,3.559375,
167.192,3.553125,
167.193,3.5375,
167.194,3.534375,
167.195,3.546875,
167.196,3.55,
167.197,3.54375,
167.198,3.546875,
167.199,3.559375,
167.2,3.540625,
167.201,3.53125,
167.202,3.540625,
167.203,3.5375,
167.204,3.528125,
167.205,3.53125,
167.206,3.540625,
167.207,3.56875,
167.208,3.58125,
167.209,3.6,
167.21,3.625,
167.211,3.625,
167.212,3.621875,
167.213,3.628125,
167.214,3.621875,
167.215,3.584375,
167.216,3.559375,
167.217,3.565625,
167.218,3.55,
167.219,3.53125,
167.22,3.525,
167.221,3.521875,
167.222,3.521875,
167.223,3.525,
167.224,3.53125,
167.225,3.525,
167.226,3.5125,
167.227,3.528125,
167.228,3.54375,
167.229,3.54375,
167.23,3.53125,
167.231,3.534375,
167.232,3.5375,
167.233,3.5375,
167.234,3.534375,
167.235,3.53125,
167.236,3.5125,
167.237,3.5,
167.238,3.515625,
167.239,3.5375,
167.24,3.55,
167.241,3.546875,
167.242,3.54375,
167.243,3.5375,
167.244,3.528125,
167.245,3.5375,
167.246,3.55,
167.247,3.55,
167.248,3.55625,
167.249,3.55,
167.25,3.546875,
167.251,3.5375,
167.252,3.5375,
167.253,3.5625,
167.254,3.61875,
167.255,3.78125,
167.256,4.015625,
167.257,4.203125,
167.258,4.190625,
167.259,3.971875,
167.26,3.63125,
167.261,3.3875,
167.262,3.403125,
167.263,3.54375,
167.264,3.64375,
167.265,3.665625,
167.266,3.640625,
167.267,3.6,
167.268,3.578125,
167.269,3.553125,
167.27,3.546875,
167.271,3.54375,
167.272,3.54375,
167.273,3.53125,
167.274,3.525,
167.275,3.51875,
167.276,3.5,
167.277,3.496875,
167.278,3.5125,
167.279,3.509375,
167.28,3.496875,
167.281,3.5,
167.282,3.490625,
167.283,3.484375,
167.284,3.48125,
167.285,3.490625,
167.286,3.4875,
167.287,3.4875,
167.288,3.484375,
167.289,3.5,
167.29,3.503125,
167.291,3.490625,
167.292,3.503125,
167.293,3.496875,
167.294,3.490625,
167.295,3.503125,
167.296,3.5125,
167.297,3.5125,
167.298,3.515625,
167.299,3.534375,
167.3,3.528125,
167.301,3.515625,
167.302,3.509375,
167.303,3.51875,
167.304,3.525,
167.305,3.515625,
167.306,3.525,
167.307,3.534375,
167.308,3.525,
167.309,3.528125,
167.31,3.5375,
167.311,3.540625,
167.312,3.528125,
167.313,3.528125,
167.314,3.546875,
167.315,3.54375,
167.316,3.540625,
167.317,3.54375,
167.318,3.540625,
167.319,3.53125,
167.32,3.51875,
167.321,3.525,
167.322,3.515625,
167.323,3.51875,
167.324,3.53125,
167.325,3.540625,
167.326,3.540625,
167.327,3.54375,
167.328,3.55,
167.329,3.55625,
167.33,3.55,
167.331,3.559375,
167.332,3.5625,
167.333,3.546875,
167.334,3.534375,
167.335,3.5375,
167.336,3.5375,
167.337,3.528125,
167.338,3.53125,
167.339,3.546875,
167.34,3.559375,
167.341,3.55,
167.342,3.5375,
167.343,3.540625,
167.344,3.540625,
167.345,3.53125,
167.346,3.534375,
167.347,3.528125,
167.348,3.525,
167.349,3.540625,
167.35,3.54375,
167.351,3.534375,
167.352,3.51875,
167.353,3.528125,
167.354,3.528125,
167.355,3.534375,
167.356,3.55625,
167.357,3.553125,
167.358,3.540625,
167.359,3.54375,
167.36,3.5375,
167.361,3.534375,
167.362,3.521875,
167.363,3.521875,
167.364,3.54375,
167.365,3.540625,
167.366,3.540625,
167.367,3.5375,
167.368,3.540625,
167.369,3.521875,
167.37,3.515625,
167.371,3.525,
167.372,3.53125,
167.373,3.546875,
167.374,3.55625,
167.375,3.553125,
167.376,3.54375,
167.377,3.54375,
167.378,3.54375,
167.379,3.540625,
167.38,3.540625,
167.381,3.54375,
167.382,3.55,
167.383,3.54375,
167.384,3.534375,
167.385,3.540625,
167.386,3.546875,
167.387,3.559375,
167.388,3.578125,
167.389,3.6,
167.39,3.609375,
167.391,3.60625,
167.392,3.6125,
167.393,3.590625,
167.394,3.559375,
167.395,3.546875,
167.396,3.55,
167.397,3.546875,
167.398,3.534375,
167.399,3.540625,
167.4,3.540625,
167.401,3.528125,
167.402,3.503125,
167.403,3.503125,
167.404,3.509375,
167.405,3.51875,
167.406,3.528125,
167.407,3.55,
167.408,3.534375,
167.409,3.528125,
167.41,3.5375,
167.411,3.540625,
167.412,3.546875,
167.413,3.5375,
167.414,3.546875,
167.415,3.546875,
167.416,3.546875,
167.417,3.546875,
167.418,3.546875,
167.419,3.540625,
167.42,3.534375,
167.421,3.54375,
167.422,3.55,
167.423,3.55625,
167.424,3.5625,
167.425,3.56875,
167.426,3.559375,
167.427,3.565625,
167.428,3.5625,
167.429,3.56875,
167.43,3.5625,
167.431,3.5625,
167.432,3.584375,
167.433,3.640625,
167.434,3.790625,
167.435,4.028125,
167.436,4.215625,
167.437,4.203125,
167.438,3.975,
167.439,3.628125,
167.44,3.39375,
167.441,3.409375,
167.442,3.553125,
167.443,3.665625,
167.444,3.690625,
167.445,3.659375,
167.446,3.621875,
167.447,3.596875,
167.448,3.571875,
167.449,3.5625,
167.45,3.55625,
167.451,3.54375,
167.452,3.51875,
167.453,3.509375,
167.454,3.503125,
167.455,3.50625,
167.456,3.521875,
167.457,3.525,
167.458,3.51875,
167.459,3.509375,
167.46,3.503125,
167.461,3.509375,
167.462,3.509375,
167.463,3.5,
167.464,3.515625,
167.465,3.515625,
167.466,3.51875,
167.467,3.515625,
167.468,3.50625,
167.469,3.5,
167.47,3.484375,
167.471,3.5,
167.472,3.51875,
167.473,3.528125,
167.474,3.528125,
167.475,3.534375,
167.476,3.521875,
167.477,3.509375,
167.478,3.51875,
167.479,3.5375,
167.48,3.5375,
167.481,3.54375,
167.482,3.553125,
167.483,3.540625,
167.484,3.525,
167.485,3.521875,
167.486,3.528125,
167.487,3.515625,
167.488,3.521875,
167.489,3.5375,
167.49,3.55,
167.491,3.55625,
167.492,3.553125,
167.493,3.55625,
167.494,3.55,
167.495,3.546875,
167.496,3.559375,
167.497,3.565625,
167.498,3.5625,
167.499,3.54375,
167.5,3.54375,
167.501,3.54375,
167.502,3.534375,
167.503,3.53125,
167.504,3.5375,
167.505,3.5375,
167.506,3.553125,
167.507,3.55625,
167.508,3.55625,
167.509,3.54375,
167.51,3.553125,
167.511,3.553125,
167.512,3.55,
167.513,3.553125,
167.514,3.55625,
167.515,3.5625,
167.516,3.559375,
167.517,3.55,
167.518,3.559375,
167.519,3.546875,
167.52,3.534375,
167.521,3.5375,
167.522,3.54375,
167.523,3.55,
167.524,3.55,
167.525,3.5625,
167.526,3.55625,
167.527,3.55625,
167.528,3.571875,
167.529,3.578125,
167.53,3.5625,
167.531,3.559375,
167.532,3.565625,
167.533,3.565625,
167.534,3.55625,
167.535,3.5375,
167.536,3.5375,
167.537,3.528125,
167.538,3.528125,
167.539,3.54375,
167.54,3.5625,
167.541,3.5625,
167.542,3.5625,
167.543,3.55625,
167.544,3.55625,
167.545,3.5625,
167.546,3.56875,
167.547,3.565625,
167.548,3.559375,
167.549,3.5625,
167.55,3.55625,
167.551,3.553125,
167.552,3.540625,
167.553,3.5375,
167.554,3.540625,
167.555,3.546875,
167.556,3.55,
167.557,3.56875,
167.558,3.5625,
167.559,3.553125,
167.56,3.55625,
167.561,3.5625,
167.562,3.55625,
167.563,3.546875,
167.564,3.559375,
167.565,3.571875,
167.566,3.55625,
167.567,3.553125,
167.568,3.5625,
167.569,3.575,
167.57,3.571875,
167.571,3.590625,
167.572,3.61875,
167.573,3.625,
167.574,3.621875,
167.575,3.615625,
167.576,3.584375,
167.577,3.559375,
167.578,3.5625,
167.579,3.575,
167.58,3.56875,
167.581,3.553125,
167.582,3.553125,
167.583,3.55625,
167.584,3.534375,
167.585,3.515625,
167.586,3.51875,
167.587,3.51875,
167.588,3.528125,
167.589,3.5375,
167.59,3.559375,
167.591,3.5625,
167.592,3.553125,
167.593,3.546875,
167.594,3.55,
167.595,3.54375,
167.596,3.54375,
167.597,3.546875,
167.598,3.54375,
167.599,3.54375,
167.6,3.546875,
167.601,3.546875,
167.602,3.5375,
167.603,3.5375,
167.604,3.55,
167.605,3.559375,
167.606,3.565625,
167.607,3.575,
167.608,3.575,
167.609,3.5625,
167.61,3.565625,
167.611,3.565625,
167.612,3.56875,
167.613,3.56875,
167.614,3.603125,
167.615,3.696875,
167.616,3.871875,
167.617,4.115625,
167.618,4.278125,
167.619,4.234375,
167.62,3.96875,
167.621,3.609375,
167.622,3.4,
167.623,3.440625,
167.624,3.58125,
167.625,3.675,
167.626,3.690625,
167.627,3.65625,
167.628,3.61875,
167.629,3.596875,
167.63,3.578125,
167.631,3.56875,
167.632,3.565625,
167.633,3.55625,
167.634,3.53125,
167.635,3.503125,
167.636,3.50625,
167.637,3.509375,
167.638,3.5125,
167.639,3.51875,
167.64,3.528125,
167.641,3.521875,
167.642,3.509375,
167.643,3.503125,
167.644,3.503125,
167.645,3.5,
167.646,3.5125,
167.647,3.528125,
167.648,3.515625,
167.649,3.496875,
167.65,3.490625,
167.651,3.490625,
167.652,3.484375,
167.653,3.4875,
167.654,3.509375,
167.655,3.528125,
167.656,3.53125,
167.657,3.534375,
167.658,3.5375,
167.659,3.5375,
167.66,3.5375,
167.661,3.540625,
167.662,3.54375,
167.663,3.534375,
167.664,3.5375,
167.665,3.54375,
167.666,3.546875,
167.667,3.534375,
167.668,3.525,
167.669,3.51875,
167.67,3.525,
167.671,3.53125,
167.672,3.553125,
167.673,3.559375,
167.674,3.55,
167.675,3.55625,
167.676,3.55,
167.677,3.546875,
167.678,3.553125,
167.679,3.5625,
167.68,3.56875,
167.681,3.559375,
167.682,3.55625,
167.683,3.55625,
167.684,3.540625,
167.685,3.5375,
167.686,3.5375,
167.687,3.534375,
167.688,3.534375,
167.689,3.55,
167.69,3.5625,
167.691,3.5625,
167.692,3.553125,
167.693,3.55625,
167.694,3.5625,
167.695,3.5625,
167.696,3.565625,
167.697,3.578125,
167.698,3.565625,
167.699,3.55625,
167.7,3.55625,
167.701,3.55625,
167.702,3.540625,
167.703,3.525,
167.704,3.528125,
167.705,3.54375,
167.706,3.559375,
167.707,3.565625,
167.708,3.559375,
167.709,3.546875,
167.71,3.54375,
167.711,3.553125,
167.712,3.559375,
167.713,3.55625,
167.714,3.55,
167.715,3.559375,
167.716,3.55625,
167.717,3.559375,
167.718,3.546875,
167.719,3.54375,
167.72,3.528125,
167.721,3.5375,
167.722,3.5625,
167.723,3.56875,
167.724,3.5625,
167.725,3.559375,
167.726,3.559375,
167.727,3.5625,
167.728,3.55625,
167.729,3.559375,
167.73,3.565625,
167.731,3.559375,
167.732,3.55625,
167.733,3.55625,
167.734,3.546875,
167.735,3.528125,
167.736,3.53125,
167.737,3.534375,
167.738,3.54375,
167.739,3.559375,
167.74,3.56875,
167.741,3.571875,
167.742,3.559375,
167.743,3.55,
167.744,3.571875,
167.745,3.596875,
167.746,3.609375,
167.747,3.628125,
167.748,3.6375,
167.749,3.6375,
167.75,3.63125,
167.751,3.615625,
167.752,3.58125,
167.753,3.546875,
167.754,3.55,
167.755,3.5625,
167.756,3.571875,
167.757,3.565625,
167.758,3.559375,
167.759,3.54375,
167.76,3.53125,
167.761,3.528125,
167.762,3.534375,
167.763,3.534375,
167.764,3.5375,
167.765,3.54375,
167.766,3.553125,
167.767,3.534375,
167.768,3.515625,
167.769,3.525,
167.77,3.525,
167.771,3.528125,
167.772,3.546875,
167.773,3.565625,
167.774,3.565625,
167.775,3.553125,
167.776,3.559375,
167.777,3.56875,
167.778,3.565625,
167.779,3.575,
167.78,3.575,
167.781,3.5625,
167.782,3.55625,
167.783,3.55,
167.784,3.5375,
167.785,3.528125,
167.786,3.534375,
167.787,3.54375,
167.788,3.55625,
167.789,3.559375,
167.79,3.571875,
167.791,3.625,
167.792,3.753125,
167.793,3.98125,
167.794,4.196875,
167.795,4.2375,
167.796,4.059375,
167.797,3.728125,
167.798,3.44375,
167.799,3.39375,
167.8,3.50625,
167.801,3.628125,
167.802,3.6625,
167.803,3.646875,
167.804,3.6125,
167.805,3.6,
167.806,3.590625,
167.807,3.571875,
167.808,3.55625,
167.809,3.546875,
167.81,3.528125,
167.811,3.534375,
167.812,3.540625,
167.813,3.528125,
167.814,3.51875,
167.815,3.521875,
167.816,3.528125,
167.817,3.5125,
167.818,3.4875,
167.819,3.484375,
167.82,3.478125,
167.821,3.4875,
167.822,3.5,
167.823,3.509375,
167.824,3.496875,
167.825,3.503125,
167.826,3.5125,
167.827,3.5125,
167.828,3.496875,
167.829,3.503125,
167.83,3.51875,
167.831,3.5125,
167.832,3.509375,
167.833,3.5125,
167.834,3.50625,
167.835,3.496875,
167.836,3.490625,
167.837,3.50625,
167.838,3.5125,
167.839,3.521875,
167.84,3.5375,
167.841,3.540625,
167.842,3.540625,
167.843,3.540625,
167.844,3.546875,
167.845,3.553125,
167.846,3.5375,
167.847,3.5375,
167.848,3.540625,
167.849,3.5375,
167.85,3.534375,
167.851,3.528125,
167.852,3.521875,
167.853,3.509375,
167.854,3.528125,
167.855,3.55,
167.856,3.559375,
167.857,3.55,
167.858,3.546875,
167.859,3.540625,
167.86,3.5375,
167.861,3.546875,
167.862,3.55625,
167.863,3.546875,
167.864,3.54375,
167.865,3.54375,
167.866,3.546875,
167.867,3.540625,
167.868,3.528125,
167.869,3.525,
167.87,3.525,
167.871,3.515625,
167.872,3.528125,
167.873,3.540625,
167.874,3.54375,
167.875,3.546875,
167.876,3.559375,
167.877,3.5625,
167.878,3.553125,
167.879,3.546875,
167.88,3.553125,
167.881,3.553125,
167.882,3.546875,
167.883,3.534375,
167.884,3.53125,
167.885,3.528125,
167.886,3.521875,
167.887,3.528125,
167.888,3.53125,
167.889,3.54375,
167.89,3.559375,
167.891,3.56875,
167.892,3.559375,
167.893,3.553125,
167.894,3.55,
167.895,3.5375,
167.896,3.534375,
167.897,3.534375,
167.898,3.55,
167.899,3.546875,
167.9,3.53125,
167.901,3.528125,
167.902,3.528125,
167.903,3.51875,
167.904,3.528125,
167.905,3.546875,
167.906,3.553125,
167.907,3.559375,
167.908,3.553125,
167.909,3.553125,
167.91,3.546875,
167.911,3.546875,
167.912,3.55,
167.913,3.55,
167.914,3.546875,
167.915,3.540625,
167.916,3.54375,
167.917,3.540625,
167.918,3.525,
167.919,3.51875,
167.92,3.53125,
167.921,3.534375,
167.922,3.55625,
167.923,3.5875,
167.924,3.60625,
167.925,3.609375,
167.926,3.621875,
167.927,3.621875,
167.928,3.61875,
167.929,3.603125,
167.93,3.584375,
167.931,3.56875,
167.932,3.55,
167.933,3.55,
167.934,3.53125,
167.935,3.515625,
167.936,3.496875,
167.937,3.515625,
167.938,3.525,
167.939,3.528125,
167.94,3.525,
167.941,3.53125,
167.942,3.525,
167.943,3.528125,
167.944,3.534375,
167.945,3.5375,
167.946,3.534375,
167.947,3.534375,
167.948,3.540625,
167.949,3.546875,
167.95,3.534375,
167.951,3.53125,
167.952,3.528125,
167.953,3.51875,
167.954,3.521875,
167.955,3.540625,
167.956,3.55,
167.957,3.546875,
167.958,3.54375,
167.959,3.546875,
167.96,3.546875,
167.961,3.55625,
167.962,3.559375,
167.963,3.559375,
167.964,3.546875,
167.965,3.546875,
167.966,3.553125,
167.967,3.553125,
167.968,3.571875,
167.969,3.659375,
167.97,3.84375,
167.971,4.084375,
167.972,4.225,
167.973,4.16875,
167.974,3.8875,
167.975,3.51875,
167.976,3.35625,
167.977,3.4375,
167.978,3.590625,
167.979,3.66875,
167.98,3.68125,
167.981,3.646875,
167.982,3.6125,
167.983,3.584375,
167.984,3.5625,
167.985,3.5375,
167.986,3.51875,
167.987,3.525,
167.988,3.528125,
167.989,3.534375,
167.99,3.525,
167.991,3.525,
167.992,3.515625,
167.993,3.5125,
167.994,3.509375,
167.995,3.50625,
167.996,3.50625,
167.997,3.515625,
167.998,3.515625,
167.999,3.50625,
168,3.50625,
168.001,3.5,
168.002,3.503125,
168.003,3.490625,
168.004,3.49375,
168.005,3.503125,
168.006,3.525,
168.007,3.51875,
168.008,3.50625,
168.009,3.503125,
168.01,3.5125,
168.011,3.509375,
168.012,3.51875,
168.013,3.54375,
168.014,3.540625,
168.015,3.5375,
168.016,3.534375,
168.017,3.53125,
168.018,3.521875,
168.019,3.51875,
168.02,3.528125,
168.021,3.534375,
168.022,3.546875,
168.023,3.559375,
168.024,3.5625,
168.025,3.55,
168.026,3.540625,
168.027,3.546875,
168.028,3.559375,
168.029,3.553125,
168.03,3.553125,
168.031,3.55625,
168.032,3.553125,
168.033,3.546875,
168.034,3.55,
168.035,3.534375,
168.036,3.528125,
168.037,3.534375,
168.038,3.54375,
168.039,3.546875,
168.04,3.55625,
168.041,3.559375,
168.042,3.5625,
168.043,3.553125,
168.044,3.55625,
168.045,3.553125,
168.046,3.546875,
168.047,3.54375,
168.048,3.55,
168.049,3.55,
168.05,3.540625,
168.051,3.54375,
168.052,3.540625,
168.053,3.534375,
168.054,3.5375,
168.055,3.55,
168.056,3.5625,
168.057,3.55625,
168.058,3.55,
168.059,3.559375,
168.06,3.565625,
168.061,3.565625,
168.062,3.559375,
168.063,3.5625,
168.064,3.5625,
168.065,3.565625,
168.066,3.5625,
168.067,3.553125,
168.068,3.546875,
168.069,3.5375,
168.07,3.5375,
168.071,3.534375,
168.072,3.546875,
168.073,3.56875,
168.074,3.575,
168.075,3.55625,
168.076,3.553125,
168.077,3.54375,
168.078,3.54375,
168.079,3.534375,
168.08,3.540625,
168.081,3.55625,
168.082,3.553125,
168.083,3.546875,
168.084,3.546875,
168.085,3.54375,
168.086,3.528125,
168.087,3.540625,
168.088,3.55625,
168.089,3.559375,
168.09,3.55625,
168.091,3.559375,
168.092,3.5625,
168.093,3.5625,
168.094,3.553125,
168.095,3.559375,
168.096,3.565625,
168.097,3.5625,
168.098,3.56875,
168.099,3.5625,
168.1,3.55625,
168.101,3.55,
168.102,3.553125,
168.103,3.540625,
168.104,3.546875,
168.105,3.575,
168.106,3.596875,
168.107,3.609375,
168.108,3.621875,
168.109,3.621875,
168.11,3.621875,
168.111,3.60625,
168.112,3.584375,
168.113,3.578125,
168.114,3.5625,
168.115,3.56875,
168.116,3.571875,
168.117,3.5625,
168.118,3.54375,
168.119,3.528125,
168.12,3.528125,
168.121,3.528125,
168.122,3.534375,
168.123,3.540625,
168.124,3.546875,
168.125,3.5375,
168.126,3.5375,
168.127,3.54375,
168.128,3.55625,
168.129,3.55,
168.13,3.553125,
168.131,3.55625,
168.132,3.559375,
168.133,3.553125,
168.134,3.546875,
168.135,3.540625,
168.136,3.528125,
168.137,3.5375,
168.138,3.55625,
168.139,3.565625,
168.14,3.565625,
168.141,3.56875,
168.142,3.5625,
168.143,3.5625,
168.144,3.559375,
168.145,3.565625,
168.146,3.571875,
168.147,3.565625,
168.148,3.56875,
168.149,3.575,
168.15,3.575,
168.151,3.6,
168.152,3.721875,
168.153,3.940625,
168.154,4.18125,
168.155,4.284375,
168.156,4.159375,
168.157,3.83125,
168.158,3.49375,
168.159,3.4,
168.16,3.503125,
168.161,3.628125,
168.162,3.678125,
168.163,3.678125,
168.164,3.64375,
168.165,3.6125,
168.166,3.6,
168.167,3.584375,
168.168,3.553125,
168.169,3.534375,
168.17,3.528125,
168.171,3.528125,
168.172,3.5125,
168.173,3.515625,
168.174,3.521875,
168.175,3.521875,
168.176,3.521875,
168.177,3.51875,
168.178,3.509375,
168.179,3.503125,
168.18,3.5,
168.181,3.5125,
168.182,3.5125,
168.183,3.50625,
168.184,3.503125,
168.185,3.5,
168.186,3.48125,
168.187,3.4875,
168.188,3.5,
168.189,3.5125,
168.19,3.5125,
168.191,3.51875,
168.192,3.521875,
168.193,3.515625,
168.194,3.509375,
168.195,3.525,
168.196,3.5375,
168.197,3.53125,
168.198,3.53125,
168.199,3.534375,
168.2,3.534375,
168.201,3.515625,
168.202,3.50625,
168.203,3.515625,
168.204,3.525,
168.205,3.5375,
168.206,3.55625,
168.207,3.55,
168.208,3.55,
168.209,3.54375,
168.21,3.55,
168.211,3.553125,
168.212,3.546875,
168.213,3.553125,
168.214,3.559375,
168.215,3.553125,
168.216,3.55625,
168.217,3.5625,
168.218,3.55625,
168.219,3.540625,
168.22,3.534375,
168.221,3.540625,
168.222,3.55,
168.223,3.55,
168.224,3.56875,
168.225,3.559375,
168.226,3.546875,
168.227,3.553125,
168.228,3.553125,
168.229,3.553125,
168.23,3.55,
168.231,3.565625,
168.232,3.565625,
168.233,3.559375,
168.234,3.553125,
168.235,3.55,
168.236,3.540625,
168.237,3.540625,
168.238,3.553125,
168.239,3.55625,
168.24,3.565625,
168.241,3.559375,
168.242,3.559375,
168.243,3.55625,
168.244,3.55,
168.245,3.565625,
168.246,3.56875,
168.247,3.55625,
168.248,3.55,
168.249,3.55,
168.25,3.55,
168.251,3.534375,
168.252,3.534375,
168.253,3.546875,
168.254,3.55,
168.255,3.54375,
168.256,3.55625,
168.257,3.5625,
168.258,3.553125,
168.259,3.559375,
168.26,3.565625,
168.261,3.559375,
168.262,3.55625,
168.263,3.565625,
168.264,3.55625,
168.265,3.55625,
168.266,3.553125,
168.267,3.553125,
168.268,3.546875,
168.269,3.534375,
168.27,3.5375,
168.271,3.55,
168.272,3.559375,
168.273,3.565625,
168.274,3.56875,
168.275,3.571875,
168.276,3.5625,
168.277,3.571875,
168.278,3.571875,
168.279,3.559375,
168.28,3.553125,
168.281,3.55625,
168.282,3.575,
168.283,3.58125,
168.284,3.59375,
168.285,3.609375,
168.286,3.60625,
168.287,3.6125,
168.288,3.6125,
168.289,3.6125,
168.29,3.59375,
168.291,3.565625,
168.292,3.565625,
168.293,3.55625,
168.294,3.553125,
168.295,3.55625,
168.296,3.55625,
168.297,3.540625,
168.298,3.53125,
168.299,3.534375,
168.3,3.53125,
168.301,3.521875,
168.302,3.528125,
168.303,3.534375,
168.304,3.53125,
168.305,3.528125,
168.306,3.53125,
168.307,3.546875,
168.308,3.5375,
168.309,3.540625,
168.31,3.54375,
168.311,3.546875,
168.312,3.55,
168.313,3.5625,
168.314,3.565625,
168.315,3.55,
168.316,3.540625,
168.317,3.546875,
168.318,3.5375,
168.319,3.53125,
168.32,3.5375,
168.321,3.553125,
168.322,3.5625,
168.323,3.559375,
168.324,3.56875,
168.325,3.5625,
168.326,3.559375,
168.327,3.565625,
168.328,3.59375,
168.329,3.675,
168.33,3.859375,
168.331,4.1,
168.332,4.253125,
168.333,4.190625,
168.334,3.928125,
168.335,3.584375,
168.336,3.3875,
168.337,3.428125,
168.338,3.56875,
168.339,3.665625,
168.34,3.684375,
168.341,3.665625,
168.342,3.634375,
168.343,3.59375,
168.344,3.571875,
168.345,3.559375,
168.346,3.5625,
168.347,3.55,
168.348,3.534375,
168.349,3.528125,
168.35,3.528125,
168.351,3.51875,
168.352,3.503125,
168.353,3.50625,
168.354,3.509375,
168.355,3.5125,
168.356,3.509375,
168.357,3.509375,
168.358,3.5,
168.359,3.50625,
168.36,3.509375,
168.361,3.503125,
168.362,3.503125,
168.363,3.509375,
168.364,3.5125,
168.365,3.50625,
168.366,3.509375,
168.367,3.5125,
168.368,3.515625,
168.369,3.5125,
168.37,3.5125,
168.371,3.509375,
168.372,3.515625,
168.373,3.515625,
168.374,3.525,
168.375,3.534375,
168.376,3.534375,
168.377,3.53125,
168.378,3.534375,
168.379,3.540625,
168.38,3.540625,
168.381,3.55,
168.382,3.553125,
168.383,3.5375,
168.384,3.51875,
168.385,3.525,
168.386,3.53125,
168.387,3.53125,
168.388,3.54375,
168.389,3.546875,
168.39,3.54375,
168.391,3.54375,
168.392,3.546875,
168.393,3.55,
168.394,3.54375,
168.395,3.55625,
168.396,3.565625,
168.397,3.55625,
168.398,3.54375,
168.399,3.534375,
168.4,3.53125,
168.401,3.534375,
168.402,3.534375,
168.403,3.540625,
168.404,3.534375,
168.405,3.528125,
168.406,3.54375,
168.407,3.55625,
168.408,3.55,
168.409,3.546875,
168.41,3.559375,
168.411,3.55625,
168.412,3.55,
168.413,3.553125,
168.414,3.5625,
168.415,3.55,
168.416,3.540625,
168.417,3.546875,
168.418,3.546875,
168.419,3.534375,
168.42,3.525,
168.421,3.540625,
168.422,3.553125,
168.423,3.55,
168.424,3.55,
168.425,3.55625,
168.426,3.55,
168.427,3.54375,
168.428,3.540625,
168.429,3.55,
168.43,3.540625,
168.431,3.5375,
168.432,3.54375,
168.433,3.546875,
168.434,3.54375,
168.435,3.553125,
168.436,3.55,
168.437,3.5375,
168.438,3.540625,
168.439,3.54375,
168.44,3.553125,
168.441,3.54375,
168.442,3.546875,
168.443,3.546875,
168.444,3.546875,
168.445,3.546875,
168.446,3.546875,
168.447,3.546875,
168.448,3.5375,
168.449,3.53125,
168.45,3.528125,
168.451,3.534375,
168.452,3.534375,
168.453,3.5375,
168.454,3.540625,
168.455,3.5375,
168.456,3.553125,
168.457,3.571875,
168.458,3.58125,
168.459,3.596875,
168.46,3.615625,
168.461,3.628125,
168.462,3.628125,
168.463,3.621875,
168.464,3.615625,
168.465,3.5875,
168.466,3.55625,
168.467,3.546875,
168.468,3.553125,
168.469,3.540625,
168.47,3.534375,
168.471,3.528125,
168.472,3.53125,
168.473,3.521875,
168.474,3.509375,
168.475,3.521875,
168.476,3.525,
168.477,3.51875,
168.478,3.521875,
168.479,3.53125,
168.48,3.528125,
168.481,3.53125,
168.482,3.534375,
168.483,3.525,
168.484,3.528125,
168.485,3.53125,
168.486,3.525,
168.487,3.515625,
168.488,3.528125,
168.489,3.54375,
168.49,3.54375,
168.491,3.546875,
168.492,3.540625,
168.493,3.546875,
168.494,3.55625,
168.495,3.54375,
168.496,3.55,
168.497,3.546875,
168.498,3.54375,
168.499,3.54375,
168.5,3.546875,
168.501,3.546875,
168.502,3.5375,
168.503,3.55625,
168.504,3.628125,
168.505,3.771875,
168.506,4,
168.507,4.184375,
168.508,4.18125,
168.509,3.959375,
168.51,3.60625,
168.511,3.378125,
168.512,3.40625,
168.513,3.55,
168.514,3.65625,
168.515,3.671875,
168.516,3.64375,
168.517,3.60625,
168.518,3.58125,
168.519,3.553125,
168.52,3.546875,
168.521,3.5375,
168.522,3.534375,
168.523,3.53125,
168.524,3.525,
168.525,3.521875,
168.526,3.51875,
168.527,3.5125,
168.528,3.5125,
168.529,3.509375,
168.53,3.50625,
168.531,3.503125,
168.532,3.50625,
168.533,3.496875,
168.534,3.49375,
168.535,3.490625,
168.536,3.496875,
168.537,3.484375,
168.538,3.4875,
168.539,3.503125,
168.54,3.509375,
168.541,3.5125,
168.542,3.515625,
168.543,3.51875,
168.544,3.521875,
168.545,3.515625,
168.546,3.5125,
168.547,3.521875,
168.548,3.521875,
168.549,3.525,
168.55,3.525,
168.551,3.534375,
168.552,3.53125,
168.553,3.528125,
168.554,3.528125,
168.555,3.5375,
168.556,3.5375,
168.557,3.540625,
168.558,3.540625,
168.559,3.5375,
168.56,3.540625,
168.561,3.546875,
168.562,3.540625,
168.563,3.5375,
168.564,3.540625,
168.565,3.540625,
168.566,3.53125,
168.567,3.534375,
168.568,3.54375,
168.569,3.5375,
168.57,3.53125,
168.571,3.540625,
168.572,3.5375,
168.573,3.540625,
168.574,3.54375,
168.575,3.553125,
168.576,3.553125,
168.577,3.55,
168.578,3.55,
168.579,3.553125,
168.58,3.54375,
168.581,3.54375,
168.582,3.55,
168.583,3.54375,
168.584,3.540625,
168.585,3.540625,
168.586,3.55,
168.587,3.5375,
168.588,3.546875,
168.589,3.553125,
168.59,3.5625,
168.591,3.553125,
168.592,3.55,
168.593,3.553125,
168.594,3.553125,
168.595,3.546875,
168.596,3.54375,
168.597,3.559375,
168.598,3.553125,
168.599,3.546875,
168.6,3.546875,
168.601,3.55,
168.602,3.540625,
168.603,3.540625,
168.604,3.553125,
168.605,3.55625,
168.606,3.55625,
168.607,3.559375,
168.608,3.55,
168.609,3.54375,
168.61,3.546875,
168.611,3.5625,
168.612,3.565625,
168.613,3.553125,
168.614,3.55625,
168.615,3.55625,
168.616,3.55625,
168.617,3.55625,
168.618,3.553125,
168.619,3.546875,
168.62,3.53125,
168.621,3.5375,
168.622,3.553125,
168.623,3.559375,
168.624,3.5625,
168.625,3.55625,
168.626,3.553125,
168.627,3.546875,
168.628,3.55625,
168.629,3.5625,
168.63,3.5625,
168.631,3.546875,
168.632,3.553125,
168.633,3.546875,
168.634,3.546875,
168.635,3.54375,
168.636,3.553125,
168.637,3.553125,
168.638,3.553125,
168.639,3.565625,
168.64,3.5875,
168.641,3.596875,
168.642,3.609375,
168.643,3.61875,
168.644,3.63125,
168.645,3.61875,
168.646,3.6125,
168.647,3.60625,
168.648,3.575,
168.649,3.553125,
168.65,3.54375,
168.651,3.559375,
168.652,3.546875,
168.653,3.534375,
168.654,3.5375,
168.655,3.528125,
168.656,3.534375,
168.657,3.534375,
168.658,3.5375,
168.659,3.53125,
168.66,3.53125,
168.661,3.5375,
168.662,3.540625,
168.663,3.534375,
168.664,3.540625,
168.665,3.546875,
168.666,3.5375,
168.667,3.53125,
168.668,3.54375,
168.669,3.5375,
168.67,3.53125,
168.671,3.5375,
168.672,3.553125,
168.673,3.553125,
168.674,3.55,
168.675,3.55,
168.676,3.55625,
168.677,3.55,
168.678,3.54375,
168.679,3.559375,
168.68,3.5625,
168.681,3.55,
168.682,3.553125,
168.683,3.55625,
168.684,3.559375,
168.685,3.5625,
168.686,3.5875,
168.687,3.678125,
168.688,3.875,
168.689,4.121875,
168.69,4.28125,
168.691,4.2125,
168.692,3.925,
168.693,3.571875,
168.694,3.39375,
168.695,3.453125,
168.696,3.5875,
168.697,3.675,
168.698,3.66875,
168.699,3.640625,
168.7,3.615625,
168.701,3.596875,
168.702,3.575,
168.703,3.55,
168.704,3.546875,
168.705,3.55,
168.706,3.540625,
168.707,3.53125,
168.708,3.53125,
168.709,3.5125,
168.71,3.515625,
168.711,3.515625,
168.712,3.51875,
168.713,3.5125,
168.714,3.50625,
168.715,3.509375,
168.716,3.50625,
168.717,3.496875,
168.718,3.49375,
168.719,3.496875,
168.72,3.49375,
168.721,3.50625,
168.722,3.515625,
168.723,3.521875,
168.724,3.525,
168.725,3.521875,
168.726,3.528125,
168.727,3.521875,
168.728,3.525,
168.729,3.534375,
168.73,3.53125,
168.731,3.525,
168.732,3.528125,
168.733,3.521875,
168.734,3.525,
168.735,3.521875,
168.736,3.525,
168.737,3.525,
168.738,3.534375,
168.739,3.534375,
168.74,3.54375,
168.741,3.54375,
168.742,3.5375,
168.743,3.5375,
168.744,3.55,
168.745,3.55,
168.746,3.54375,
168.747,3.546875,
168.748,3.55,
168.749,3.54375,
168.75,3.540625,
168.751,3.54375,
168.752,3.534375,
168.753,3.534375,
168.754,3.546875,
168.755,3.546875,
168.756,3.546875,
168.757,3.546875,
168.758,3.559375,
168.759,3.553125,
168.76,3.55625,
168.761,3.553125,
168.762,3.55625,
168.763,3.55,
168.764,3.546875,
168.765,3.559375,
168.766,3.559375,
168.767,3.546875,
168.768,3.534375,
168.769,3.540625,
168.77,3.534375,
168.771,3.54375,
168.772,3.559375,
168.773,3.55625,
168.774,3.55625,
168.775,3.559375,
168.776,3.565625,
168.777,3.565625,
168.778,3.55625,
168.779,3.559375,
168.78,3.56875,
168.781,3.55625,
168.782,3.55,
168.783,3.546875,
168.784,3.55,
168.785,3.54375,
168.786,3.5375,
168.787,3.55,
168.788,3.546875,
168.789,3.553125,
168.79,3.5625,
168.791,3.559375,
168.792,3.546875,
168.793,3.54375,
168.794,3.553125,
168.795,3.553125,
168.796,3.54375,
168.797,3.553125,
168.798,3.553125,
168.799,3.546875,
168.8,3.540625,
168.801,3.54375,
168.802,3.54375,
168.803,3.540625,
168.804,3.55625,
168.805,3.559375,
168.806,3.559375,
168.807,3.546875,
168.808,3.55,
168.809,3.55,
168.81,3.553125,
168.811,3.559375,
168.812,3.5625,
168.813,3.553125,
168.814,3.55,
168.815,3.553125,
168.816,3.553125,
168.817,3.546875,
168.818,3.546875,
168.819,3.553125,
168.82,3.55,
168.821,3.546875,
168.822,3.546875,
168.823,3.575,
168.824,3.596875,
168.825,3.609375,
168.826,3.615625,
168.827,3.6125,
168.828,3.609375,
168.829,3.609375,
168.83,3.6,
168.831,3.575,
168.832,3.5625,
168.833,3.559375,
168.834,3.5625,
168.835,3.546875,
168.836,3.54375,
168.837,3.546875,
168.838,3.54375,
168.839,3.5375,
168.84,3.5375,
168.841,3.54375,
168.842,3.528125,
168.843,3.528125,
168.844,3.525,
168.845,3.51875,
168.846,3.51875,
168.847,3.528125,
168.848,3.540625,
168.849,3.540625,
168.85,3.5375,
168.851,3.540625,
168.852,3.5375,
168.853,3.534375,
168.854,3.546875,
168.855,3.553125,
168.856,3.55,
168.857,3.553125,
168.858,3.55625,
168.859,3.55625,
168.86,3.553125,
168.861,3.553125,
168.862,3.571875,
168.863,3.571875,
168.864,3.55625,
168.865,3.559375,
168.866,3.5625,
168.867,3.553125,
168.868,3.55625,
168.869,3.621875,
168.87,3.78125,
168.871,4.025,
168.872,4.221875,
168.873,4.25,
168.874,4.034375,
168.875,3.671875,
168.876,3.421875,
168.877,3.41875,
168.878,3.54375,
168.879,3.64375,
168.88,3.684375,
168.881,3.653125,
168.882,3.628125,
168.883,3.6,
168.884,3.584375,
168.885,3.559375,
168.886,3.540625,
168.887,3.5375,
168.888,3.528125,
168.889,3.521875,
168.89,3.5125,
168.891,3.51875,
168.892,3.509375,
168.893,3.509375,
168.894,3.5125,
168.895,3.515625,
168.896,3.503125,
168.897,3.503125,
168.898,3.509375,
168.899,3.496875,
168.9,3.496875,
168.901,3.49375,
168.902,3.5,
168.903,3.503125,
168.904,3.509375,
168.905,3.51875,
168.906,3.509375,
168.907,3.509375,
168.908,3.509375,
168.909,3.5125,
168.91,3.515625,
168.911,3.515625,
168.912,3.51875,
168.913,3.525,
168.914,3.525,
168.915,3.51875,
168.916,3.528125,
168.917,3.53125,
168.918,3.521875,
168.919,3.521875,
168.92,3.5125,
168.921,3.515625,
168.922,3.51875,
168.923,3.5375,
168.924,3.5375,
168.925,3.534375,
168.926,3.5375,
168.927,3.55,
168.928,3.553125,
168.929,3.553125,
168.93,3.553125,
168.931,3.553125,
168.932,3.55625,
168.933,3.55625,
168.934,3.553125,
168.935,3.540625,
168.936,3.525,
168.937,3.540625,
168.938,3.54375,
168.939,3.54375,
168.94,3.55,
168.941,3.55625,
168.942,3.55,
168.943,3.55625,
168.944,3.5625,
168.945,3.5625,
168.946,3.546875,
168.947,3.540625,
168.948,3.546875,
168.949,3.5375,
168.95,3.534375,
168.951,3.54375,
168.952,3.559375,
168.953,3.553125,
168.954,3.546875,
168.955,3.553125,
168.956,3.553125,
168.957,3.55,
168.958,3.546875,
168.959,3.553125,
168.96,3.553125,
168.961,3.55625,
168.962,3.553125,
168.963,3.565625,
168.964,3.5625,
168.965,3.55625,
168.966,3.5625,
168.967,3.559375,
168.968,3.546875,
168.969,3.5375,
168.97,3.54375,
168.971,3.540625,
168.972,3.546875,
168.973,3.55,
168.974,3.546875,
168.975,3.534375,
168.976,3.54375,
168.977,3.546875,
168.978,3.553125,
168.979,3.553125,
168.98,3.553125,
168.981,3.55,
168.982,3.546875,
168.983,3.540625,
168.984,3.540625,
168.985,3.540625,
168.986,3.5375,
168.987,3.54375,
168.988,3.54375,
168.989,3.546875,
168.99,3.546875,
168.991,3.55625,
168.992,3.546875,
168.993,3.546875,
168.994,3.546875,
168.995,3.54375,
168.996,3.540625,
168.997,3.553125,
168.998,3.571875,
168.999,3.5875,
169,3.6,
169.001,3.61875,
169.002,3.628125,
169.003,3.625,
169.004,3.6125,
169.005,3.5875,
169.006,3.56875,
169.007,3.55,
169.008,3.540625,
169.009,3.553125,
169.01,3.546875,
169.011,3.54375,
169.012,3.540625,
169.013,3.53125,
169.014,3.515625,
169.015,3.521875,
169.016,3.525,
169.017,3.53125,
169.018,3.521875,
169.019,3.525,
169.02,3.534375,
169.021,3.521875,
169.022,3.525,
169.023,3.528125,
169.024,3.540625,
169.025,3.546875,
169.026,3.54375,
169.027,3.540625,
169.028,3.5375,
169.029,3.5375,
169.03,3.55,
169.031,3.546875,
169.032,3.54375,
169.033,3.5375,
169.034,3.546875,
169.035,3.54375,
169.036,3.540625,
169.037,3.55,
169.038,3.55,
169.039,3.55,
169.04,3.546875,
169.041,3.54375,
169.042,3.55,
169.043,3.55,
169.044,3.59375,
169.045,3.71875,
169.046,3.925,
169.047,4.13125,
169.048,4.1875,
169.049,4.040625,
169.05,3.703125,
169.051,3.403125,
169.052,3.36875,
169.053,3.490625,
169.054,3.61875,
169.055,3.66875,
169.056,3.659375,
169.057,3.6125,
169.058,3.5875,
169.059,3.571875,
169.06,3.55,
169.061,3.54375,
169.062,3.5375,
169.063,3.53125,
169.064,3.509375,
169.065,3.496875,
169.066,3.496875,
169.067,3.4875,
169.068,3.484375,
169.069,3.484375,
169.07,3.490625,
169.071,3.48125,
169.072,3.48125,
169.073,3.4875,
169.074,3.5,
169.075,3.49375,
169.076,3.496875,
169.077,3.5,
169.078,3.4875,
169.079,3.484375,
169.08,3.490625,
169.081,3.5,
169.082,3.49375,
169.083,3.5,
169.084,3.503125,
169.085,3.503125,
169.086,3.503125,
169.087,3.503125,
169.088,3.515625,
169.089,3.509375,
169.09,3.5,
169.091,3.5125,
169.092,3.521875,
169.093,3.515625,
169.094,3.525,
169.095,3.528125,
169.096,3.525,
169.097,3.521875,
169.098,3.521875,
169.099,3.528125,
169.1,3.53125,
169.101,3.525,
169.102,3.525,
169.103,3.525,
169.104,3.528125,
169.105,3.53125,
169.106,3.5375,
169.107,3.54375,
169.108,3.54375,
169.109,3.546875,
169.11,3.5375,
169.111,3.534375,
169.112,3.5375,
169.113,3.54375,
169.114,3.534375,
169.115,3.528125,
169.116,3.540625,
169.117,3.546875,
169.118,3.546875,
169.119,3.540625,
169.12,3.540625,
169.121,3.546875,
169.122,3.55,
169.123,3.553125,
169.124,3.553125,
169.125,3.553125,
169.126,3.559375,
169.127,3.565625,
169.128,3.55625,
169.129,3.540625,
169.13,3.5375,
169.131,3.54375,
169.132,3.534375,
169.133,3.540625,
169.134,3.553125,
169.135,3.559375,
169.136,3.540625,
169.137,3.54375,
169.138,3.546875,
169.139,3.546875,
169.14,3.546875,
169.141,3.546875,
169.142,3.55625,
169.143,3.55,
169.144,3.553125,
169.145,3.546875,
169.146,3.54375,
169.147,3.5375,
169.148,3.534375,
169.149,3.54375,
169.15,3.540625,
169.151,3.540625,
169.152,3.546875,
169.153,3.553125,
169.154,3.55,
169.155,3.54375,
169.156,3.55,
169.157,3.55625,
169.158,3.559375,
169.159,3.559375,
169.16,3.55,
169.161,3.55,
169.162,3.54375,
169.163,3.55625,
169.164,3.54375,
169.165,3.54375,
169.166,3.55,
169.167,3.55625,
169.168,3.55625,
169.169,3.546875,
169.17,3.553125,
169.171,3.553125,
169.172,3.55,
169.173,3.55,
169.174,3.5625,
169.175,3.55625,
169.176,3.55,
169.177,3.55,
169.178,3.559375,
169.179,3.5625,
169.18,3.571875,
169.181,3.590625,
169.182,3.603125,
169.183,3.6125,
169.184,3.61875,
169.185,3.625,
169.186,3.60625,
169.187,3.584375,
169.188,3.575,
