16.45,3.740625,
16.451,3.740625,
16.452,3.740625,
16.453,3.725,
16.454,3.73125,
16.455,3.746875,
16.456,3.84375,
16.457,4.16875,
16.458,4.55625,
16.459,4.68125,
16.46,4.309375,
16.461,3.58125,
16.462,2.996875,
16.463,3.015625,
16.464,3.596875,
16.465,4.259375,
16.466,4.6625,
16.467,4.7125,
16.468,4.54375,
16.469,4.346875,
16.47,4.1625,
16.471,4.00625,
16.472,3.91875,
16.473,3.8625,
16.474,3.834375,
16.475,3.815625,
16.476,3.803125,
16.477,3.815625,
16.478,3.84375,
16.479,3.8625,
16.48,3.8625,
16.481,3.834375,
16.482,3.809375,
16.483,3.803125,
16.484,3.81875,
16.485,3.809375,
16.486,3.809375,
16.487,3.821875,
16.488,3.81875,
16.489,3.815625,
16.49,3.796875,
16.491,3.784375,
16.492,3.771875,
16.493,3.771875,
16.494,3.7875,
16.495,3.79375,
16.496,3.796875,
16.497,3.7875,
16.498,3.7625,
16.499,3.740625,
16.5,3.734375,
16.501,3.74375,
16.502,3.7375,
16.503,3.721875,
16.504,3.709375,
16.505,3.73125,
16.506,3.725,
16.507,3.71875,
16.508,3.70625,
16.509,3.703125,
16.51,3.696875,
16.511,3.69375,
16.512,3.7125,
16.513,3.725,
16.514,3.728125,
16.515,3.715625,
16.516,3.70625,
16.517,3.7,
16.518,3.690625,
16.519,3.68125,
16.52,3.68125,
16.521,3.684375,
16.522,3.690625,
16.523,3.690625,
16.524,3.68125,
16.525,3.675,
16.526,3.678125,
16.527,3.678125,
16.528,3.69375,
16.529,3.715625,
16.53,3.721875,
16.531,3.703125,
16.532,3.66875,
16.533,3.6625,
16.534,3.66875,
16.535,3.6625,
16.536,3.653125,
16.537,3.65625,
16.538,3.66875,
16.539,3.675,
16.54,3.671875,
16.541,3.675,
16.542,3.684375,
16.543,3.709375,
16.544,3.75625,
16.545,3.790625,
16.546,3.803125,
16.547,3.79375,
16.548,3.75,
16.549,3.684375,
16.55,3.665625,
16.551,3.66875,
16.552,3.684375,
16.553,3.684375,
16.554,3.678125,
16.555,3.66875,
16.556,3.6625,
16.557,3.65,
16.558,3.64375,
16.559,3.625,
16.56,3.625,
16.561,3.659375,
16.562,3.69375,
16.563,3.709375,
16.564,3.6875,
16.565,3.678125,
16.566,3.678125,
16.567,3.66875,
16.568,3.671875,
16.569,3.68125,
16.57,3.684375,
16.571,3.690625,
16.572,3.696875,
16.573,3.7125,
16.574,3.715625,
16.575,3.696875,
16.576,3.703125,
16.577,3.796875,
16.578,4.10625,
16.579,4.525,
16.58,4.690625,
16.581,4.35,
16.582,3.615625,
16.583,3.003125,
16.584,2.975,
16.585,3.509375,
16.586,4.178125,
16.587,4.615625,
16.588,4.70625,
16.589,4.55,
16.59,4.3375,
16.591,4.146875,
16.592,4,
16.593,3.909375,
16.594,3.875,
16.595,3.871875,
16.596,3.853125,
16.597,3.84375,
16.598,3.834375,
16.599,3.825,
16.6,3.825,
16.601,3.809375,
16.602,3.809375,
16.603,3.803125,
16.604,3.796875,
16.605,3.803125,
16.606,3.803125,
16.607,3.815625,
16.608,3.81875,
16.609,3.821875,
16.61,3.803125,
16.611,3.80625,
16.612,3.821875,
16.613,3.83125,
16.614,3.815625,
16.615,3.796875,
16.616,3.803125,
16.617,3.8,
16.618,3.7875,
16.619,3.76875,
16.62,3.759375,
16.621,3.74375,
16.622,3.753125,
16.623,3.75625,
16.624,3.75,
16.625,3.740625,
16.626,3.740625,
16.627,3.75,
16.628,3.74375,
16.629,3.746875,
16.63,3.74375,
16.631,3.74375,
16.632,3.73125,
16.633,3.728125,
16.634,3.740625,
16.635,3.734375,
16.636,3.728125,
16.637,3.725,
16.638,3.721875,
16.639,3.71875,
16.64,3.728125,
16.641,3.721875,
16.642,3.709375,
16.643,3.7,
16.644,3.71875,
16.645,3.746875,
16.646,3.75,
16.647,3.75,
16.648,3.73125,
16.649,3.728125,
16.65,3.73125,
16.651,3.7375,
16.652,3.728125,
16.653,3.709375,
16.654,3.696875,
16.655,3.70625,
16.656,3.709375,
16.657,3.709375,
16.658,3.71875,
16.659,3.73125,
16.66,3.734375,
16.661,3.7375,
16.662,3.746875,
16.663,3.75,
16.664,3.74375,
16.665,3.73125,
16.666,3.734375,
16.667,3.7375,
16.668,3.7625,
16.669,3.790625,
16.67,3.8125,
16.671,3.8,
16.672,3.796875,
16.673,3.78125,
16.674,3.74375,
16.675,3.696875,
16.676,3.7,
16.677,3.7375,
16.678,3.746875,
16.679,3.746875,
16.68,3.740625,
16.681,3.74375,
16.682,3.728125,
16.683,3.728125,
16.684,3.746875,
16.685,3.740625,
16.686,3.721875,
16.687,3.725,
16.688,3.7375,
16.689,3.725,
16.69,3.721875,
16.691,3.73125,
16.692,3.73125,
16.693,3.721875,
16.694,3.7375,
16.695,3.75,
16.696,3.7625,
16.697,3.765625,
16.698,3.759375,
16.699,3.73125,
16.7,3.740625,
16.701,3.753125,
16.702,3.75625,
16.703,3.821875,
16.704,4.10625,
16.705,4.528125,
16.706,4.728125,
16.707,4.428125,
16.708,3.690625,
16.709,3.046875,
16.71,2.984375,
16.711,3.509375,
16.712,4.2125,
16.713,4.646875,
16.714,4.728125,
16.715,4.571875,
16.716,4.35625,
16.717,4.171875,
16.718,4.034375,
16.719,3.934375,
16.72,3.884375,
16.721,3.846875,
16.722,3.828125,
16.723,3.825,
16.724,3.83125,
16.725,3.821875,
16.726,3.803125,
16.727,3.8125,
16.728,3.821875,
16.729,3.840625,
16.73,3.834375,
16.731,3.828125,
16.732,3.8125,
16.733,3.825,
16.734,3.8375,
16.735,3.825,
16.736,3.815625,
16.737,3.809375,
16.738,3.81875,
16.739,3.8125,
16.74,3.809375,
16.741,3.8,
16.742,3.8,
16.743,3.784375,
16.744,3.771875,
16.745,3.784375,
16.746,3.790625,
16.747,3.790625,
16.748,3.7875,
16.749,3.7625,
16.75,3.75625,
16.751,3.75625,
16.752,3.740625,
16.753,3.73125,
16.754,3.71875,
16.755,3.725,
16.756,3.7375,
16.757,3.73125,
16.758,3.73125,
16.759,3.734375,
16.76,3.728125,
16.761,3.73125,
16.762,3.74375,
16.763,3.753125,
16.764,3.74375,
16.765,3.728125,
16.766,3.725,
16.767,3.728125,
16.768,3.73125,
16.769,3.728125,
16.77,3.728125,
16.771,3.71875,
16.772,3.721875,
16.773,3.728125,
16.774,3.73125,
16.775,3.73125,
16.776,3.721875,
16.777,3.725,
16.778,3.725,
16.779,3.7375,
16.78,3.746875,
16.781,3.7375,
16.782,3.73125,
16.783,3.725,
16.784,3.73125,
16.785,3.725,
16.786,3.7125,
16.787,3.709375,
16.788,3.71875,
16.789,3.721875,
16.79,3.728125,
16.791,3.725,
16.792,3.721875,
16.793,3.71875,
16.794,3.75,
16.795,3.7875,
16.796,3.8125,
16.797,3.83125,
16.798,3.840625,
16.799,3.828125,
16.8,3.775,
16.801,3.740625,
16.802,3.725,
16.803,3.73125,
16.804,3.73125,
16.805,3.740625,
16.806,3.74375,
16.807,3.73125,
16.808,3.71875,
16.809,3.70625,
16.81,3.715625,
16.811,3.715625,
16.812,3.740625,
16.813,3.75625,
16.814,3.753125,
16.815,3.7375,
16.816,3.734375,
16.817,3.753125,
16.818,3.74375,
16.819,3.71875,
16.82,3.71875,
16.821,3.728125,
16.822,3.725,
16.823,3.740625,
16.824,3.753125,
16.825,3.740625,
16.826,3.7375,
16.827,3.75,
16.828,3.7625,
16.829,3.834375,
16.83,4.10625,
16.831,4.528125,
16.832,4.75,
16.833,4.5125,
16.834,3.840625,
16.835,3.128125,
16.836,2.9375,
16.837,3.384375,
16.838,4.09375,
16.839,4.59375,
16.84,4.73125,
16.841,4.6,
16.842,4.378125,
16.843,4.175,
16.844,4.040625,
16.845,3.9625,
16.846,3.90625,
16.847,3.859375,
16.848,3.8375,
16.849,3.85,
16.85,3.846875,
16.851,3.828125,
16.852,3.809375,
16.853,3.809375,
16.854,3.8,
16.855,3.8125,
16.856,3.821875,
16.857,3.815625,
16.858,3.815625,
16.859,3.825,
16.86,3.834375,
16.861,3.8375,
16.862,3.84375,
16.863,3.8375,
16.864,3.834375,
16.865,3.821875,
16.866,3.821875,
16.867,3.828125,
16.868,3.825,
16.869,3.79375,
16.87,3.784375,
16.871,3.784375,
16.872,3.778125,
16.873,3.7875,
16.874,3.79375,
16.875,3.76875,
16.876,3.753125,
16.877,3.76875,
16.878,3.765625,
16.879,3.7625,
16.88,3.746875,
16.881,3.7375,
16.882,3.734375,
16.883,3.74375,
16.884,3.74375,
16.885,3.7375,
16.886,3.728125,
16.887,3.721875,
16.888,3.7375,
16.889,3.7375,
16.89,3.74375,
16.891,3.74375,
16.892,3.73125,
16.893,3.7125,
16.894,3.71875,
16.895,3.7375,
16.896,3.746875,
16.897,3.74375,
16.898,3.734375,
16.899,3.740625,
16.9,3.753125,
16.901,3.75625,
16.902,3.740625,
16.903,3.73125,
16.904,3.715625,
16.905,3.728125,
16.906,3.725,
16.907,3.734375,
16.908,3.734375,
16.909,3.740625,
16.91,3.75625,
16.911,3.74375,
16.912,3.7375,
16.913,3.75,
16.914,3.759375,
16.915,3.7375,
16.916,3.728125,
16.917,3.734375,
16.918,3.7375,
16.919,3.721875,
16.92,3.7125,
16.921,3.73125,
16.922,3.765625,
16.923,3.8125,
16.924,3.85,
16.925,3.840625,
16.926,3.81875,
16.927,3.790625,
16.928,3.7625,
16.929,3.75,
16.93,3.753125,
16.931,3.75625,
16.932,3.765625,
16.933,3.753125,
16.934,3.75625,
16.935,3.740625,
16.936,3.7125,
16.937,3.70625,
16.938,3.728125,
16.939,3.740625,
16.94,3.725,
16.941,3.715625,
16.942,3.728125,
16.943,3.728125,
16.944,3.73125,
16.945,3.75,
16.946,3.759375,
16.947,3.7625,
16.948,3.753125,
16.949,3.765625,
16.95,3.759375,
16.951,3.75625,
16.952,3.74375,
16.953,3.728125,
16.954,3.725,
16.955,3.7375,
16.956,3.825,
16.957,4.0875,
16.958,4.484375,
16.959,4.7125,
16.96,4.51875,
16.961,3.85625,
16.962,3.15,
16.963,2.953125,
16.964,3.3875,
16.965,4.06875,
16.966,4.596875,
16.967,4.75,
16.968,4.609375,
16.969,4.378125,
16.97,4.178125,
16.971,4.046875,
16.972,3.95625,
16.973,3.896875,
16.974,3.871875,
16.975,3.84375,
16.976,3.815625,
16.977,3.821875,
16.978,3.8375,
16.979,3.85,
16.98,3.85,
16.981,3.846875,
16.982,3.8375,
16.983,3.815625,
16.984,3.8125,
16.985,3.81875,
16.986,3.8,
16.987,3.8,
16.988,3.821875,
16.989,3.8375,
16.99,3.828125,
16.991,3.803125,
16.992,3.803125,
16.993,3.803125,
16.994,3.8,
16.995,3.828125,
16.996,3.8375,
16.997,3.81875,
16.998,3.784375,
16.999,3.75625,
17,3.75625,
17.001,3.753125,
17.002,3.759375,
17.003,3.75625,
17.004,3.740625,
17.005,3.725,
17.006,3.73125,
17.007,3.734375,
17.008,3.73125,
17.009,3.715625,
17.01,3.721875,
17.011,3.73125,
17.012,3.740625,
17.013,3.759375,
17.014,3.753125,
17.015,3.715625,
17.016,3.7,
17.017,3.709375,
17.018,3.703125,
17.019,3.69375,
17.02,3.69375,
17.021,3.7125,
17.022,3.725,
17.023,3.715625,
17.024,3.703125,
17.025,3.696875,
17.026,3.6875,
17.027,3.7125,
17.028,3.75,
17.029,3.753125,
17.03,3.7375,
17.031,3.725,
17.032,3.715625,
17.033,3.7125,
17.034,3.70625,
17.035,3.709375,
17.036,3.7,
17.037,3.690625,
17.038,3.690625,
17.039,3.69375,
17.04,3.696875,
17.041,3.69375,
17.042,3.696875,
17.043,3.709375,
17.044,3.7375,
17.045,3.803125,
17.046,3.84375,
17.047,3.846875,
17.048,3.80625,
17.049,3.775,
17.05,3.74375,
17.051,3.70625,
17.052,3.703125,
17.053,3.709375,
17.054,3.709375,
17.055,3.69375,
17.056,3.69375,
17.057,3.6875,
17.058,3.66875,
17.059,3.653125,
17.06,3.659375,
17.061,3.68125,
17.062,3.696875,
17.063,3.70625,
17.064,3.709375,
17.065,3.696875,
17.066,3.675,
17.067,3.6875,
17.068,3.7,
17.069,3.69375,
17.07,3.68125,
17.071,3.68125,
17.072,3.696875,
17.073,3.703125,
17.074,3.6875,
17.075,3.675,
17.076,3.68125,
17.077,3.7,
17.078,3.74375,
17.079,3.89375,
17.08,4.2375,
17.081,4.58125,
17.082,4.609375,
17.083,4.128125,
17.084,3.375,
17.085,2.9,
17.086,3.06875,
17.087,3.7,
17.088,4.35,
17.089,4.68125,
17.09,4.66875,
17.091,4.478125,
17.092,4.25625,
17.093,4.08125,
17.094,3.971875,
17.095,3.921875,
17.096,3.896875,
17.097,3.8625,
17.098,3.815625,
17.099,3.7875,
17.1,3.79375,
17.101,3.803125,
17.102,3.80625,
17.103,3.80625,
17.104,3.796875,
17.105,3.790625,
17.106,3.79375,
17.107,3.8,
17.108,3.790625,
17.109,3.79375,
17.11,3.809375,
17.111,3.828125,
17.112,3.834375,
17.113,3.834375,
17.114,3.825,
17.115,3.80625,
17.116,3.790625,
17.117,3.79375,
17.118,3.8,
17.119,3.79375,
17.12,3.76875,
17.121,3.76875,
17.122,3.759375,
17.123,3.753125,
17.124,3.753125,
17.125,3.75,
17.126,3.746875,
17.127,3.74375,
17.128,3.771875,
17.129,3.78125,
17.13,3.7625,
17.131,3.734375,
17.132,3.721875,
17.133,3.721875,
17.134,3.73125,
17.135,3.740625,
17.136,3.75,
17.137,3.7375,
17.138,3.71875,
17.139,3.71875,
17.14,3.71875,
17.141,3.70625,
17.142,3.703125,
17.143,3.715625,
17.144,3.721875,
17.145,3.740625,
17.146,3.746875,
17.147,3.75,
17.148,3.7375,
17.149,3.721875,
17.15,3.7375,
17.151,3.746875,
17.152,3.74375,
17.153,3.728125,
17.154,3.721875,
17.155,3.71875,
17.156,3.73125,
17.157,3.734375,
17.158,3.73125,
17.159,3.7125,
17.16,3.721875,
17.161,3.75625,
17.162,3.75625,
17.163,3.75625,
17.164,3.746875,
17.165,3.74375,
17.166,3.721875,
17.167,3.74375,
17.168,3.75625,
17.169,3.771875,
17.17,3.796875,
17.171,3.815625,
17.172,3.80625,
17.173,3.796875,
17.174,3.778125,
17.175,3.746875,
17.176,3.721875,
17.177,3.728125,
17.178,3.765625,
17.179,3.79375,
17.18,3.76875,
17.181,3.7375,
17.182,3.715625,
17.183,3.7125,
17.184,3.73125,
17.185,3.7375,
17.186,3.7375,
17.187,3.715625,
17.188,3.709375,
17.189,3.71875,
17.19,3.725,
17.191,3.715625,
17.192,3.71875,
17.193,3.746875,
17.194,3.746875,
17.195,3.765625,
17.196,3.771875,
17.197,3.76875,
17.198,3.75,
17.199,3.734375,
17.2,3.7375,
17.201,3.746875,
17.202,3.753125,
17.203,3.765625,
17.204,3.85,
17.205,4.1375,
17.206,4.546875,
17.207,4.725,
17.208,4.403125,
17.209,3.6625,
17.21,3.028125,
17.211,3.003125,
17.212,3.5625,
17.213,4.24375,
17.214,4.65,
17.215,4.709375,
17.216,4.553125,
17.217,4.35,
17.218,4.178125,
17.219,4.0375,
17.22,3.940625,
17.221,3.896875,
17.222,3.86875,
17.223,3.840625,
17.224,3.825,
17.225,3.821875,
17.226,3.834375,
17.227,3.8375,
17.228,3.828125,
17.229,3.84375,
17.23,3.846875,
17.231,3.83125,
17.232,3.828125,
17.233,3.8125,
17.234,3.81875,
17.235,3.828125,
17.236,3.8375,
17.237,3.825,
17.238,3.8,
17.239,3.80625,
17.24,3.815625,
17.241,3.809375,
17.242,3.79375,
17.243,3.803125,
17.244,3.8125,
17.245,3.8125,
17.246,3.81875,
17.247,3.8125,
17.248,3.775,
17.249,3.765625,
17.25,3.765625,
17.251,3.775,
17.252,3.765625,
17.253,3.75,
17.254,3.746875,
17.255,3.734375,
17.256,3.734375,
17.257,3.721875,
17.258,3.734375,
17.259,3.73125,
17.26,3.728125,
17.261,3.753125,
17.262,3.765625,
17.263,3.775,
17.264,3.75625,
17.265,3.734375,
17.266,3.7125,
17.267,3.721875,
17.268,3.7375,
17.269,3.740625,
17.27,3.721875,
17.271,3.7125,
17.272,3.725,
17.273,3.73125,
17.274,3.725,
17.275,3.71875,
17.276,3.73125,
17.277,3.734375,
17.278,3.74375,
17.279,3.76875,
17.28,3.759375,
17.281,3.7375,
17.282,3.73125,
17.283,3.725,
17.284,3.73125,
17.285,3.746875,
17.286,3.75,
17.287,3.74375,
17.288,3.728125,
17.289,3.73125,
17.29,3.73125,
17.291,3.7375,
17.292,3.71875,
17.293,3.73125,
17.294,3.7375,
17.295,3.759375,
17.296,3.778125,
17.297,3.7625,
17.298,3.740625,
17.299,3.725,
17.3,3.7625,
17.301,3.821875,
17.302,3.8375,
17.303,3.825,
17.304,3.815625,
17.305,3.784375,
17.306,3.740625,
17.307,3.728125,
17.308,3.73125,
17.309,3.74375,
17.31,3.75,
17.311,3.7625,
17.312,3.76875,
17.313,3.75625,
17.314,3.7375,
17.315,3.721875,
17.316,3.703125,
17.317,3.7125,
17.318,3.73125,
17.319,3.740625,
17.32,3.734375,
17.321,3.71875,
17.322,3.71875,
17.323,3.71875,
17.324,3.725,
17.325,3.740625,
17.326,3.74375,
17.327,3.746875,
17.328,3.765625,
17.329,3.784375,
17.33,3.76875,
17.331,3.740625,
17.332,3.740625,
17.333,3.7375,
17.334,3.753125,
17.335,3.784375,
17.336,3.95,
17.337,4.35,
17.338,4.678125,
17.339,4.65,
17.34,4.134375,
17.341,3.346875,
17.342,2.909375,
17.343,3.165625,
17.344,3.84375,
17.345,4.4625,
17.346,4.74375,
17.347,4.696875,
17.348,4.4875,
17.349,4.24375,
17.35,4.084375,
17.351,3.990625,
17.352,3.928125,
17.353,3.865625,
17.354,3.846875,
17.355,3.828125,
17.356,3.81875,
17.357,3.81875,
17.358,3.815625,
17.359,3.815625,
17.36,3.80625,
17.361,3.828125,
17.362,3.85,
17.363,3.8375,
17.364,3.825,
17.365,3.834375,
17.366,3.81875,
17.367,3.821875,
17.368,3.8375,
17.369,3.840625,
17.37,3.8375,
17.371,3.81875,
17.372,3.815625,
17.373,3.8125,
17.374,3.80625,
17.375,3.79375,
17.376,3.79375,
17.377,3.79375,
17.378,3.803125,
17.379,3.821875,
17.38,3.803125,
17.381,3.76875,
17.382,3.7375,
17.383,3.740625,
17.384,3.7625,
17.385,3.765625,
17.386,3.75625,
17.387,3.746875,
17.388,3.734375,
17.389,3.728125,
17.39,3.725,
17.391,3.725,
17.392,3.7125,
17.393,3.725,
17.394,3.74375,
17.395,3.753125,
17.396,3.759375,
17.397,3.753125,
17.398,3.734375,
17.399,3.7125,
17.4,3.7125,
17.401,3.7375,
17.402,3.74375,
17.403,3.7375,
17.404,3.725,
17.405,3.7125,
17.406,3.709375,
17.407,3.721875,
17.408,3.725,
17.409,3.728125,
17.41,3.71875,
17.411,3.740625,
17.412,3.759375,
17.413,3.74375,
17.414,3.725,
17.415,3.715625,
17.416,3.709375,
17.417,3.71875,
17.418,3.73125,
17.419,3.7375,
17.42,3.73125,
17.421,3.728125,
17.422,3.728125,
17.423,3.73125,
17.424,3.725,
17.425,3.725,
17.426,3.73125,
17.427,3.721875,
17.428,3.746875,
17.429,3.790625,
17.43,3.840625,
17.431,3.84375,
17.432,3.834375,
17.433,3.81875,
17.434,3.790625,
17.435,3.75625,
17.436,3.73125,
17.437,3.721875,
17.438,3.721875,
17.439,3.73125,
17.44,3.734375,
17.441,3.721875,
17.442,3.7125,
17.443,3.709375,
17.444,3.73125,
17.445,3.7375,
17.446,3.7375,
17.447,3.73125,
17.448,3.728125,
17.449,3.728125,
17.45,3.73125,
17.451,3.7375,
17.452,3.734375,
17.453,3.7375,
17.454,3.73125,
17.455,3.74375,
17.456,3.74375,
17.457,3.746875,
17.458,3.75625,
17.459,3.75,
17.46,3.75625,
17.461,3.7625,
17.462,3.775,
17.463,3.796875,
17.464,3.903125,
17.465,4.234375,
17.466,4.609375,
17.467,4.709375,
17.468,4.3125,
17.469,3.559375,
17.47,2.975,
17.471,3.046875,
17.472,3.671875,
17.473,4.3375,
17.474,4.696875,
17.475,4.70625,
17.476,4.5375,
17.477,4.325,
17.478,4.140625,
17.479,4.028125,
17.48,3.953125,
17.481,3.89375,
17.482,3.846875,
17.483,3.828125,
17.484,3.834375,
17.485,3.834375,
17.486,3.825,
17.487,3.81875,
17.488,3.809375,
17.489,3.803125,
17.49,3.815625,
17.491,3.834375,
17.492,3.828125,
17.493,3.81875,
17.494,3.821875,
17.495,3.84375,
17.496,3.85,
17.497,3.85,
17.498,3.821875,
17.499,3.80625,
17.5,3.815625,
17.501,3.825,
17.502,3.8125,
17.503,3.79375,
17.504,3.775,
17.505,3.784375,
17.506,3.78125,
17.507,3.784375,
17.508,3.765625,
17.509,3.765625,
17.51,3.759375,
17.511,3.765625,
17.512,3.7875,
17.513,3.771875,
17.514,3.7625,
17.515,3.746875,
17.516,3.725,
17.517,3.725,
17.518,3.73125,
17.519,3.73125,
17.52,3.71875,
17.521,3.709375,
17.522,3.7125,
17.523,3.728125,
17.524,3.734375,
17.525,3.73125,
17.526,3.728125,
17.527,3.71875,
17.528,3.725,
17.529,3.74375,
17.53,3.740625,
17.531,3.721875,
17.532,3.70625,
17.533,3.709375,
17.534,3.7375,
17.535,3.721875,
17.536,3.70625,
17.537,3.703125,
17.538,3.7125,
17.539,3.71875,
17.54,3.715625,
17.541,3.73125,
17.542,3.734375,
17.543,3.715625,
17.544,3.7125,
17.545,3.721875,
17.546,3.740625,
17.547,3.740625,
17.548,3.73125,
17.549,3.69375,
17.55,3.696875,
17.551,3.734375,
17.552,3.728125,
17.553,3.728125,
17.554,3.759375,
17.555,3.796875,
17.556,3.803125,
17.557,3.796875,
17.558,3.775,
17.559,3.7375,
17.56,3.70625,
17.561,3.725,
17.562,3.75,
17.563,3.75625,
17.564,3.725,
17.565,3.7,
17.566,3.69375,
17.567,3.68125,
17.568,3.696875,
17.569,3.703125,
17.57,3.7,
17.571,3.678125,
17.572,3.675,
17.573,3.69375,
17.574,3.69375,
17.575,3.68125,
17.576,3.690625,
17.577,3.7,
17.578,3.7125,
17.579,3.73125,
17.58,3.721875,
17.581,3.70625,
17.582,3.678125,
17.583,3.69375,
17.584,3.721875,
17.585,3.721875,
17.586,3.70625,
17.587,3.709375,
17.588,3.79375,
17.589,4.096875,
17.59,4.484375,
17.591,4.63125,
17.592,4.296875,
17.593,3.575,
17.594,2.9875,
17.595,2.984375,
17.596,3.534375,
17.597,4.228125,
17.598,4.653125,
17.599,4.69375,
17.6,4.525,
17.601,4.3125,
17.602,4.128125,
17.603,3.990625,
17.604,3.89375,
17.605,3.85625,
17.606,3.834375,
17.607,3.80625,
17.608,3.7875,
17.609,3.784375,
17.61,3.78125,
17.611,3.79375,
17.612,3.80625,
17.613,3.80625,
17.614,3.778125,
17.615,3.75,
17.616,3.75,
17.617,3.765625,
17.618,3.784375,
17.619,3.78125,
17.62,3.771875,
17.621,3.765625,
17.622,3.759375,
17.623,3.76875,
17.624,3.75625,
17.625,3.75,
17.626,3.746875,
17.627,3.759375,
17.628,3.753125,
17.629,3.740625,
17.63,3.740625,
17.631,3.721875,
17.632,3.69375,
17.633,3.690625,
17.634,3.696875,
17.635,3.7,
17.636,3.709375,
17.637,3.7,
17.638,3.690625,
17.639,3.675,
17.64,3.678125,
17.641,3.678125,
17.642,3.6625,
17.643,3.6625,
17.644,3.671875,
17.645,3.6875,
17.646,3.696875,
17.647,3.6875,
17.648,3.675,
17.649,3.66875,
17.65,3.66875,
17.651,3.690625,
17.652,3.703125,
17.653,3.69375,
17.654,3.6875,
17.655,3.684375,
17.656,3.68125,
17.657,3.68125,
17.658,3.684375,
17.659,3.696875,
17.66,3.6875,
17.661,3.684375,
17.662,3.7,
17.663,3.71875,
17.664,3.709375,
17.665,3.6875,
17.666,3.68125,
17.667,3.69375,
17.668,3.696875,
17.669,3.7,
17.67,3.703125,
17.671,3.68125,
17.672,3.696875,
17.673,3.696875,
17.674,3.70625,
17.675,3.725,
17.676,3.765625,
17.677,3.796875,
17.678,3.80625,
17.679,3.8125,
17.68,3.79375,
17.681,3.75,
17.682,3.696875,
17.683,3.7,
17.684,3.725,
17.685,3.746875,
17.686,3.746875,
17.687,3.73125,
17.688,3.71875,
17.689,3.690625,
17.69,3.7,
17.691,3.69375,
17.692,3.684375,
17.693,3.675,
17.694,3.69375,
17.695,3.721875,
17.696,3.734375,
17.697,3.71875,
17.698,3.709375,
17.699,3.70625,
17.7,3.709375,
17.701,3.71875,
17.702,3.721875,
17.703,3.728125,
17.704,3.7125,
17.705,3.721875,
17.706,3.725,
17.707,3.71875,
17.708,3.71875,
17.709,3.7375,
17.71,3.7875,
17.711,4.0375,
17.712,4.4625,
17.713,4.721875,
17.714,4.521875,
17.715,3.834375,
17.716,3.11875,
17.717,2.9125,
17.718,3.35,
17.719,4.053125,
17.72,4.575,
17.721,4.73125,
17.722,4.603125,
17.723,4.396875,
17.724,4.190625,
17.725,4.028125,
17.726,3.925,
17.727,3.878125,
17.728,3.85625,
17.729,3.8375,
17.73,3.81875,
17.731,3.809375,
17.732,3.80625,
17.733,3.8125,
17.734,3.821875,
17.735,3.8125,
17.736,3.79375,
17.737,3.79375,
17.738,3.8,
17.739,3.79375,
17.74,3.8,
17.741,3.8,
17.742,3.809375,
17.743,3.803125,
17.744,3.803125,
17.745,3.815625,
17.746,3.8125,
17.747,3.796875,
17.748,3.784375,
17.749,3.7875,
17.75,3.778125,
17.751,3.784375,
17.752,3.775,
17.753,3.75625,
17.754,3.7375,
17.755,3.734375,
17.756,3.759375,
17.757,3.753125,
17.758,3.740625,
17.759,3.74375,
17.76,3.746875,
17.761,3.740625,
17.762,3.73125,
17.763,3.725,
17.764,3.725,
17.765,3.71875,
17.766,3.721875,
17.767,3.728125,
17.768,3.728125,
17.769,3.725,
17.77,3.721875,
17.771,3.696875,
17.772,3.69375,
17.773,3.703125,
17.774,3.71875,
17.775,3.721875,
17.776,3.715625,
17.777,3.721875,
17.778,3.725,
17.779,3.721875,
17.78,3.725,
17.781,3.7125,
17.782,3.703125,
17.783,3.7125,
17.784,3.734375,
17.785,3.740625,
17.786,3.728125,
17.787,3.7125,
17.788,3.715625,
17.789,3.7125,
17.79,3.71875,
17.791,3.715625,
17.792,3.71875,
17.793,3.715625,
17.794,3.728125,
17.795,3.734375,
17.796,3.71875,
17.797,3.715625,
17.798,3.728125,
17.799,3.7375,
17.8,3.7375,
17.801,3.7375,
17.802,3.7375,
17.803,3.73125,
17.804,3.728125,
17.805,3.746875,
17.806,3.778125,
17.807,3.809375,
17.808,3.8125,
17.809,3.796875,
17.81,3.778125,
17.811,3.746875,
17.812,3.7375,
17.813,3.74375,
17.814,3.740625,
17.815,3.725,
17.816,3.728125,
17.817,3.734375,
17.818,3.721875,
17.819,3.715625,
17.82,3.703125,
17.821,3.696875,
17.822,3.7,
17.823,3.709375,
17.824,3.715625,
17.825,3.709375,
17.826,3.709375,
17.827,3.728125,
17.828,3.728125,
17.829,3.734375,
17.83,3.73125,
17.831,3.7375,
17.832,3.728125,
17.833,3.728125,
17.834,3.746875,
17.835,3.7625,
17.836,3.740625,
17.837,3.721875,
17.838,3.725,
17.839,3.73125,
17.84,3.81875,
17.841,4.115625,
17.842,4.525,
17.843,4.71875,
17.844,4.45,
17.845,3.7375,
17.846,3.059375,
17.847,2.9625,
17.848,3.478125,
17.849,4.171875,
17.85,4.621875,
17.851,4.7125,
17.852,4.571875,
17.853,4.35625,
17.854,4.153125,
17.855,4.009375,
17.856,3.928125,
17.857,3.88125,
17.858,3.85,
17.859,3.8375,
17.86,3.815625,
17.861,3.815625,
17.862,3.828125,
17.863,3.834375,
17.864,3.83125,
17.865,3.8125,
17.866,3.803125,
17.867,3.8125,
17.868,3.8125,
17.869,3.8125,
17.87,3.815625,
17.871,3.809375,
17.872,3.815625,
17.873,3.821875,
17.874,3.81875,
17.875,3.80625,
17.876,3.7875,
17.877,3.79375,
17.878,3.815625,
17.879,3.81875,
17.88,3.80625,
17.881,3.80625,
17.882,3.784375,
17.883,3.7625,
17.884,3.75625,
17.885,3.765625,
17.886,3.75625,
17.887,3.7375,
17.888,3.728125,
17.889,3.715625,
17.89,3.7125,
17.891,3.721875,
17.892,3.728125,
17.893,3.7125,
17.894,3.71875,
17.895,3.746875,
17.896,3.765625,
17.897,3.74375,
17.898,3.721875,
17.899,3.71875,
17.9,3.721875,
17.901,3.728125,
17.902,3.721875,
17.903,3.70625,
17.904,3.703125,
17.905,3.70625,
17.906,3.71875,
17.907,3.725,
17.908,3.715625,
17.909,3.715625,
17.91,3.728125,
17.911,3.721875,
17.912,3.734375,
17.913,3.7375,
17.914,3.74375,
17.915,3.725,
17.916,3.709375,
17.917,3.715625,
17.918,3.7125,
17.919,3.71875,
17.92,3.71875,
17.921,3.715625,
17.922,3.709375,
17.923,3.725,
17.924,3.728125,
17.925,3.7125,
17.926,3.696875,
17.927,3.7125,
17.928,3.734375,
17.929,3.75,
17.93,3.753125,
17.931,3.7375,
17.932,3.725,
17.933,3.709375,
17.934,3.73125,
17.935,3.75625,
17.936,3.790625,
17.937,3.809375,
17.938,3.8,
17.939,3.790625,
17.94,3.7625,
17.941,3.7375,
17.942,3.73125,
17.943,3.725,
17.944,3.73125,
17.945,3.740625,
17.946,3.75,
17.947,3.74375,
17.948,3.71875,
17.949,3.703125,
17.95,3.7,
17.951,3.7125,
17.952,3.71875,
17.953,3.71875,
17.954,3.70625,
17.955,3.70625,
17.956,3.715625,
17.957,3.728125,
17.958,3.715625,
17.959,3.709375,
17.96,3.725,
17.961,3.74375,
17.962,3.75,
17.963,3.753125,
17.964,3.74375,
17.965,3.734375,
17.966,3.715625,
17.967,3.728125,
17.968,3.740625,
17.969,3.76875,
17.97,3.94375,
17.971,4.340625,
17.972,4.665625,
17.973,4.621875,
17.974,4.084375,
17.975,3.296875,
17.976,2.88125,
17.977,3.171875,
17.978,3.871875,
17.979,4.478125,
17.98,4.721875,
17.981,4.659375,
17.982,4.440625,
17.983,4.221875,
17.984,4.078125,
17.985,3.98125,
17.986,3.909375,
17.987,3.85,
17.988,3.8375,
17.989,3.828125,
17.99,3.81875,
17.991,3.815625,
17.992,3.809375,
17.993,3.803125,
17.994,3.8,
17.995,3.8125,
17.996,3.83125,
17.997,3.840625,
17.998,3.828125,
17.999,3.809375,
18,3.8,
18.001,3.809375,
18.002,3.815625,
18.003,3.81875,
18.004,3.80625,
18.005,3.784375,
18.006,3.7875,
18.007,3.8,
18.008,3.796875,
18.009,3.778125,
18.01,3.771875,
18.011,3.790625,
18.012,3.796875,
18.013,3.7875,
18.014,3.78125,
18.015,3.75,
18.016,3.7375,
18.017,3.746875,
18.018,3.753125,
18.019,3.740625,
18.02,3.7375,
18.021,3.734375,
18.022,3.725,
18.023,3.715625,
18.024,3.728125,
18.025,3.728125,
18.026,3.71875,
18.027,3.715625,
18.028,3.7125,
18.029,3.728125,
18.03,3.734375,
18.031,3.728125,
18.032,3.709375,
18.033,3.7,
18.034,3.715625,
18.035,3.7375,
18.036,3.7375,
18.037,3.715625,
18.038,3.709375,
18.039,3.721875,
18.04,3.73125,
18.041,3.725,
18.042,3.7125,
18.043,3.709375,
18.044,3.71875,
18.045,3.73125,
18.046,3.746875,
18.047,3.7375,
18.048,3.71875,
18.049,3.7125,
18.05,3.715625,
18.051,3.715625,
18.052,3.715625,
18.053,3.725,
18.054,3.73125,
18.055,3.71875,
18.056,3.725,
18.057,3.721875,
18.058,3.71875,
18.059,3.70625,
18.06,3.709375,
18.061,3.71875,
18.062,3.75,
18.063,3.778125,
18.064,3.809375,
18.065,3.815625,
18.066,3.809375,
18.067,3.815625,
18.068,3.796875,
18.069,3.740625,
18.07,3.696875,
18.071,3.715625,
18.072,3.728125,
18.073,3.73125,
18.074,3.728125,
18.075,3.725,
18.076,3.709375,
18.077,3.696875,
18.078,3.70625,
18.079,3.715625,
18.08,3.703125,
18.081,3.7,
18.082,3.70625,
18.083,3.696875,
18.084,3.703125,
18.085,3.7125,
18.086,3.715625,
18.087,3.709375,
18.088,3.696875,
18.089,3.70625,
18.09,3.721875,
18.091,3.7125,
18.092,3.70625,
18.093,3.71875,
18.094,3.73125,
18.095,3.75,
18.096,3.7625,
18.097,3.809375,
18.098,4.0375,
18.099,4.4375,
18.1,4.684375,
18.101,4.484375,
18.102,3.803125,
18.103,3.09375,
18.104,2.90625,
18.105,3.371875,
18.106,4.078125,
18.107,4.578125,
18.108,4.71875,
18.109,4.59375,
18.11,4.390625,
18.111,4.1875,
18.112,4.04375,
18.113,3.959375,
18.114,3.909375,
18.115,3.853125,
18.116,3.8125,
18.117,3.809375,
18.118,3.81875,
18.119,3.815625,
18.12,3.8,
18.121,3.78125,
18.122,3.78125,
18.123,3.790625,
18.124,3.796875,
18.125,3.80625,
18.126,3.7875,
18.127,3.790625,
18.128,3.8,
18.129,3.8125,
18.13,3.809375,
18.131,3.79375,
18.132,3.790625,
18.133,3.771875,
18.134,3.778125,
18.135,3.775,
18.136,3.78125,
18.137,3.759375,
18.138,3.740625,
18.139,3.74375,
18.14,3.73125,
18.141,3.725,
18.142,3.725,
18.143,3.725,
18.144,3.715625,
18.145,3.725,
18.146,3.740625,
18.147,3.728125,
18.148,3.703125,
18.149,3.678125,
18.15,3.690625,
18.151,3.7125,
18.152,3.703125,
18.153,3.703125,
18.154,3.69375,
18.155,3.671875,
18.156,3.678125,
18.157,3.696875,
18.158,3.703125,
18.159,3.696875,
18.16,3.703125,
18.161,3.7,
18.162,3.69375,
18.163,3.6875,
18.164,3.684375,
18.165,3.671875,
18.166,3.6625,
18.167,3.671875,
18.168,3.68125,
18.169,3.6875,
18.17,3.690625,
18.171,3.69375,
18.172,3.678125,
18.173,3.671875,
18.174,3.68125,
18.175,3.6875,
18.176,3.665625,
18.177,3.65625,
18.178,3.678125,
18.179,3.696875,
18.18,3.70625,
18.181,3.696875,
18.182,3.690625,
18.183,3.684375,
18.184,3.696875,
18.185,3.734375,
18.186,3.759375,
18.187,3.75625,
18.188,3.75625,
18.189,3.759375,
18.19,3.728125,
18.191,3.675,
18.192,3.646875,
18.193,3.675,
18.194,3.690625,
18.195,3.69375,
18.196,3.690625,
18.197,3.684375,
18.198,3.64375,
18.199,3.615625,
18.2,3.640625,
18.201,3.646875,
18.202,3.64375,
18.203,3.6375,
18.204,3.6375,
18.205,3.634375,
18.206,3.64375,
18.207,3.6625,
18.208,3.66875,
18.209,3.653125,
18.21,3.653125,
18.211,3.665625,
18.212,3.678125,
18.213,3.690625,
18.214,3.678125,
18.215,3.665625,
18.216,3.646875,
18.217,3.65625,
18.218,3.69375,
18.219,3.853125,
18.22,4.203125,
18.221,4.540625,
18.222,4.553125,
18.223,4.053125,
18.224,3.303125,
18.225,2.865625,
18.226,3.05625,
18.227,3.7,
18.228,4.359375,
18.229,4.690625,
18.23,4.66875,
18.231,4.453125,
18.232,4.228125,
18.233,4.046875,
18.234,3.95,
18.235,3.890625,
18.236,3.846875,
18.237,3.8125,
18.238,3.784375,
18.239,3.7875,
18.24,3.7875,
18.241,3.775,
18.242,3.771875,
18.243,3.784375,
18.244,3.7875,
18.245,3.7875,
18.246,3.8,
18.247,3.803125,
18.248,3.790625,
18.249,3.771875,
18.25,3.771875,
18.251,3.778125,
18.252,3.784375,
18.253,3.7875,
18.254,3.784375,
18.255,3.76875,
18.256,3.765625,
18.257,3.76875,
18.258,3.765625,
18.259,3.7375,
18.26,3.746875,
18.261,3.759375,
18.262,3.753125,
18.263,3.753125,
18.264,3.74375,
18.265,3.728125,
18.266,3.70625,
18.267,3.70625,
18.268,3.71875,
18.269,3.7125,
18.27,3.696875,
18.271,3.703125,
18.272,3.71875,
18.273,3.703125,
18.274,3.696875,
18.275,3.696875,
18.276,3.7,
18.277,3.69375,
18.278,3.696875,
18.279,3.721875,
18.28,3.71875,
18.281,3.709375,
18.282,3.696875,
18.283,3.690625,
18.284,3.696875,
18.285,3.696875,
18.286,3.70625,
18.287,3.703125,
18.288,3.696875,
18.289,3.69375,
18.29,3.7125,
18.291,3.70625,
18.292,3.696875,
18.293,3.69375,
18.294,3.696875,
18.295,3.709375,
18.296,3.721875,
18.297,3.728125,
18.298,3.70625,
18.299,3.690625,
18.3,3.69375,
18.301,3.703125,
18.302,3.696875,
18.303,3.70625,
18.304,3.71875,
18.305,3.7125,
18.306,3.7125,
18.307,3.709375,
18.308,3.7125,
18.309,3.70625,
18.31,3.71875,
18.311,3.7625,
18.312,3.803125,
18.313,3.825,
18.314,3.809375,
18.315,3.76875,
18.316,3.70625,
18.317,3.671875,
18.318,3.696875,
18.319,3.725,
18.32,3.71875,
18.321,3.703125,
18.322,3.70625,
18.323,3.696875,
18.324,3.6875,
18.325,3.684375,
18.326,3.684375,
18.327,3.690625,
18.328,3.709375,
18.329,3.715625,
18.33,3.71875,
18.331,3.70625,
18.332,3.703125,
18.333,3.7,
18.334,3.703125,
18.335,3.709375,
18.336,3.71875,
18.337,3.728125,
18.338,3.709375,
18.339,3.703125,
18.34,3.71875,
18.341,3.721875,
18.342,3.71875,
18.343,3.71875,
18.344,3.7375,
18.345,3.828125,
18.346,4.1375,
18.347,4.546875,
18.348,4.696875,
18.349,4.3625,
18.35,3.65625,
18.351,3.034375,
18.352,2.971875,
18.353,3.49375,
18.354,4.1625,
18.355,4.609375,
18.356,4.69375,
18.357,4.546875,
18.358,4.3375,
18.359,4.134375,
18.36,4.00625,
18.361,3.93125,
18.362,3.890625,
18.363,3.85,
18.364,3.83125,
18.365,3.815625,
18.366,3.7875,
18.367,3.790625,
18.368,3.80625,
18.369,3.821875,
18.37,3.809375,
18.371,3.796875,
18.372,3.79375,
18.373,3.7875,
18.374,3.796875,
18.375,3.803125,
18.376,3.80625,
18.377,3.784375,
18.378,3.79375,
18.379,3.815625,
18.38,3.815625,
18.381,3.7875,
18.382,3.771875,
18.383,3.784375,
18.384,3.790625,
18.385,3.79375,
18.386,3.78125,
18.387,3.775,
18.388,3.753125,
18.389,3.74375,
18.39,3.740625,
18.391,3.7375,
18.392,3.734375,
18.393,3.73125,
18.394,3.746875,
18.395,3.7375,
18.396,3.725,
18.397,3.725,
18.398,3.715625,
18.399,3.69375,
18.4,3.7125,
18.401,3.73125,
18.402,3.73125,
18.403,3.709375,
18.404,3.6875,
18.405,3.68125,
18.406,3.6875,
18.407,3.7,
18.408,3.7125,
18.409,3.7125,
18.41,3.7125,
18.411,3.725,
18.412,3.721875,
18.413,3.715625,
18.414,3.696875,
18.415,3.6875,
18.416,3.7,
18.417,3.71875,
18.418,3.721875,
18.419,3.728125,
18.42,3.709375,
18.421,3.690625,
18.422,3.6875,
18.423,3.6875,
18.424,3.69375,
18.425,3.703125,
18.426,3.721875,
18.427,3.71875,
18.428,3.721875,
18.429,3.73125,
18.43,3.73125,
18.431,3.70625,
18.432,3.69375,
18.433,3.703125,
18.434,3.71875,
18.435,3.725,
18.436,3.721875,
18.437,3.709375,
18.438,3.715625,
18.439,3.740625,
18.44,3.765625,
18.441,3.790625,
18.442,3.784375,
18.443,3.775,
18.444,3.778125,
18.445,3.740625,
18.446,3.728125,
18.447,3.725,
18.448,3.728125,
18.449,3.715625,
18.45,3.7125,
18.451,3.721875,
18.452,3.728125,
18.453,3.715625,
18.454,3.7,
18.455,3.69375,
18.456,3.696875,
18.457,3.7,
18.458,3.7125,
18.459,3.721875,
18.46,3.7125,
18.461,3.73125,
18.462,3.74375,
18.463,3.73125,
18.464,3.71875,
18.465,3.71875,
18.466,3.7125,
18.467,3.71875,
18.468,3.73125,
18.469,3.740625,
18.47,3.71875,
18.471,3.715625,
18.472,3.725,
18.473,3.73125,
18.474,3.828125,
18.475,4.1625,
18.476,4.578125,
18.477,4.715625,
18.478,4.365625,
18.479,3.61875,
18.48,3.00625,
18.481,3,
18.482,3.55625,
18.483,4.2375,
18.484,4.64375,
18.485,4.7,
18.486,4.53125,
18.487,4.30625,
18.488,4.109375,
18.489,3.975,
18.49,3.9125,
18.491,3.871875,
18.492,3.821875,
18.493,3.80625,
18.494,3.809375,
18.495,3.815625,
18.496,3.825,
18.497,3.821875,
18.498,3.809375,
18.499,3.784375,
18.5,3.78125,
18.501,3.8,
18.502,3.8,
18.503,3.78125,
18.504,3.79375,
18.505,3.80625,
18.506,3.80625,
18.507,3.8125,
18.508,3.8125,
18.509,3.80625,
18.51,3.8,
18.511,3.803125,
18.512,3.815625,
18.513,3.821875,
18.514,3.8125,
18.515,3.771875,
18.516,3.753125,
18.517,3.746875,
18.518,3.759375,
18.519,3.7625,
18.52,3.74375,
18.521,3.734375,
18.522,3.734375,
18.523,3.7375,
18.524,3.7375,
18.525,3.721875,
18.526,3.721875,
18.527,3.71875,
18.528,3.728125,
18.529,3.740625,
18.53,3.75625,
18.531,3.740625,
18.532,3.715625,
18.533,3.70625,
18.534,3.71875,
18.535,3.71875,
18.536,3.7125,
18.537,3.715625,
18.538,3.696875,
18.539,3.6875,
18.54,3.7,
18.541,3.7125,
18.542,3.709375,
18.543,3.703125,
18.544,3.7125,
18.545,3.725,
18.546,3.740625,
18.547,3.75,
18.548,3.734375,
18.549,3.709375,
18.55,3.70625,
18.551,3.721875,
18.552,3.71875,
18.553,3.703125,
18.554,3.703125,
18.555,3.709375,
18.556,3.70625,
18.557,3.71875,
18.558,3.709375,
18.559,3.715625,
18.56,3.70625,
18.561,3.715625,
18.562,3.73125,
18.563,3.74375,
18.564,3.74375,
18.565,3.728125,
18.566,3.73125,
18.567,3.74375,
18.568,3.78125,
18.569,3.815625,
18.57,3.81875,
18.571,3.784375,
18.572,3.75625,
18.573,3.73125,
18.574,3.71875,
18.575,3.71875,
18.576,3.71875,
18.577,3.71875,
18.578,3.721875,
18.579,3.7375,
18.58,3.7375,
18.581,3.721875,
18.582,3.696875,
18.583,3.69375,
18.584,3.71875,
18.585,3.728125,
18.586,3.728125,
18.587,3.70625,
18.588,3.69375,
18.589,3.696875,
18.59,3.709375,
18.591,3.728125,
18.592,3.715625,
18.593,3.703125,
18.594,3.721875,
18.595,3.74375,
18.596,3.75625,
18.597,3.765625,
18.598,3.759375,
18.599,3.734375,
18.6,3.73125,
18.601,3.83125,
18.602,4.121875,
18.603,4.521875,
18.604,4.709375,
18.605,4.44375,
18.606,3.725,
18.607,3.06875,
18.608,2.9625,
18.609,3.45625,
18.61,4.14375,
18.611,4.6375,
18.612,4.746875,
18.613,4.596875,
18.614,4.353125,
18.615,4.15,
18.616,4.021875,
18.617,3.940625,
18.618,3.890625,
18.619,3.859375,
18.62,3.853125,
18.621,3.825,
18.622,3.8125,
18.623,3.8125,
18.624,3.803125,
18.625,3.790625,
18.626,3.796875,
18.627,3.803125,
18.628,3.809375,
18.629,3.828125,
18.63,3.85,
18.631,3.8375,
18.632,3.8,
18.633,3.8,
18.634,3.809375,
18.635,3.815625,
18.636,3.803125,
18.637,3.79375,
18.638,3.784375,
18.639,3.790625,
18.64,3.8,
18.641,3.78125,
18.642,3.759375,
18.643,3.75625,
18.644,3.78125,
18.645,3.790625,
18.646,3.7875,
18.647,3.76875,
18.648,3.75625,
18.649,3.74375,
18.65,3.725,
18.651,3.715625,
18.652,3.721875,
18.653,3.734375,
18.654,3.71875,
18.655,3.721875,
18.656,3.7125,
18.657,3.71875,
18.658,3.71875,
18.659,3.70625,
18.66,3.696875,
18.661,3.70625,
18.662,3.734375,
18.663,3.746875,
18.664,3.728125,
18.665,3.715625,
18.666,3.70625,
18.667,3.703125,
18.668,3.715625,
18.669,3.70625,
18.67,3.684375,
18.671,3.6875,
18.672,3.71875,
18.673,3.721875,
18.674,3.721875,
18.675,3.709375,
18.676,3.696875,
18.677,3.696875,
18.678,3.69375,
18.679,3.715625,
18.68,3.73125,
18.681,3.740625,
18.682,3.7125,
18.683,3.69375,
18.684,3.715625,
18.685,3.725,
18.686,3.709375,
18.687,3.7,
18.688,3.709375,
18.689,3.696875,
18.69,3.696875,
18.691,3.73125,
18.692,3.7625,
18.693,3.76875,
18.694,3.790625,
18.695,3.8125,
18.696,3.8,
18.697,3.759375,
18.698,3.7125,
18.699,3.709375,
18.7,3.696875,
18.701,3.70625,
18.702,3.7,
18.703,3.671875,
18.704,3.65625,
18.705,3.675,
18.706,3.690625,
18.707,3.68125,
18.708,3.665625,
18.709,3.678125,
18.71,3.675,
18.711,3.671875,
18.712,3.690625,
18.713,3.728125,
18.714,3.73125,
18.715,3.721875,
18.716,3.703125,
18.717,3.703125,
18.718,3.703125,
18.719,3.703125,
18.72,3.7,
18.721,3.690625,
18.722,3.684375,
18.723,3.690625,
18.724,3.6875,
18.725,3.7375,
18.726,3.94375,
18.727,4.34375,
18.728,4.63125,
18.729,4.5125,
18.73,3.921875,
18.731,3.190625,
18.732,2.884375,
18.733,3.24375,
18.734,3.94375,
18.735,4.5,
18.736,4.7,
18.737,4.609375,
18.738,4.390625,
18.739,4.16875,
18.74,4.0125,
18.741,3.940625,
18.742,3.890625,
18.743,3.83125,
18.744,3.803125,
18.745,3.80625,
18.746,3.80625,
18.747,3.803125,
18.748,3.796875,
18.749,3.778125,
18.75,3.778125,
18.751,3.78125,
18.752,3.78125,
18.753,3.76875,
18.754,3.753125,
18.755,3.778125,
18.756,3.78125,
18.757,3.76875,
18.758,3.75,
18.759,3.75,
18.76,3.753125,
18.761,3.740625,
18.762,3.746875,
18.763,3.771875,
18.764,3.778125,
18.765,3.75625,
18.766,3.73125,
18.767,3.709375,
18.768,3.709375,
18.769,3.709375,
18.77,3.709375,
18.771,3.690625,
18.772,3.66875,
18.773,3.678125,
18.774,3.690625,
18.775,3.671875,
18.776,3.6625,
18.777,3.6625,
18.778,3.6625,
18.779,3.684375,
18.78,3.70625,
18.781,3.7,
18.782,3.6875,
18.783,3.66875,
18.784,3.671875,
18.785,3.659375,
18.786,3.646875,
18.787,3.64375,
18.788,3.64375,
18.789,3.640625,
18.79,3.653125,
18.791,3.653125,
18.792,3.6625,
18.793,3.653125,
18.794,3.65625,
18.795,3.665625,
18.796,3.678125,
18.797,3.696875,
18.798,3.7,
18.799,3.6875,
18.8,3.675,
18.801,3.68125,
18.802,3.678125,
18.803,3.684375,
18.804,3.671875,
18.805,3.671875,
18.806,3.68125,
18.807,3.690625,
18.808,3.69375,
18.809,3.684375,
18.81,3.6875,
18.811,3.703125,
18.812,3.73125,
18.813,3.778125,
18.814,3.80625,
18.815,3.809375,
18.816,3.79375,
18.817,3.765625,
18.818,3.725,
18.819,3.696875,
18.82,3.703125,
18.821,3.709375,
18.822,3.69375,
18.823,3.7,
18.824,3.715625,
18.825,3.7,
18.826,3.66875,
18.827,3.671875,
18.828,3.675,
18.829,3.69375,
18.83,3.71875,
18.831,3.734375,
18.832,3.715625,
18.833,3.684375,
18.834,3.690625,
18.835,3.709375,
18.836,3.7,
18.837,3.70625,
18.838,3.715625,
18.839,3.721875,
18.84,3.728125,
18.841,3.715625,
18.842,3.715625,
18.843,3.709375,
18.844,3.70625,
18.845,3.721875,
18.846,3.759375,
18.847,3.9,
18.848,4.259375,
18.849,4.6375,
18.85,4.671875,
18.851,4.209375,
18.852,3.4625,
18.853,2.940625,
18.854,3.053125,
18.855,3.678125,
18.856,4.3375,
18.857,4.690625,
18.858,4.690625,
18.859,4.50625,
18.86,4.271875,
18.861,4.090625,
18.862,3.990625,
18.863,3.93125,
18.864,3.884375,
18.865,3.834375,
18.866,3.8125,
18.867,3.809375,
18.868,3.80625,
18.869,3.8,
18.87,3.790625,
18.871,3.796875,
18.872,3.79375,
18.873,3.796875,
18.874,3.8,
18.875,3.790625,
18.876,3.7875,
18.877,3.790625,
18.878,3.796875,
18.879,3.809375,
18.88,3.815625,
18.881,3.8125,
18.882,3.803125,
18.883,3.778125,
18.884,3.79375,
18.885,3.796875,
18.886,3.7875,
18.887,3.7625,
18.888,3.75625,
18.889,3.75625,
18.89,3.759375,
18.891,3.759375,
18.892,3.753125,
18.893,3.71875,
18.894,3.715625,
18.895,3.7375,
18.896,3.75625,
18.897,3.746875,
18.898,3.7375,
18.899,3.73125,
18.9,3.7125,
18.901,3.709375,
18.902,3.709375,
18.903,3.7125,
18.904,3.70625,
18.905,3.7,
18.906,3.703125,
18.907,3.70625,
18.908,3.709375,
18.909,3.709375,
18.91,3.70625,
18.911,3.7,
18.912,3.70625,
18.913,3.73125,
18.914,3.73125,
18.915,3.725,
18.916,3.703125,
18.917,3.70625,
18.918,3.715625,
18.919,3.703125,
18.92,3.696875,
18.921,3.70625,
18.922,3.70625,
18.923,3.715625,
18.924,3.715625,
18.925,3.715625,
18.926,3.696875,
18.927,3.7125,
18.928,3.721875,
18.929,3.7375,
18.93,3.740625,
18.931,3.740625,
18.932,3.725,
18.933,3.715625,
18.934,3.721875,
18.935,3.728125,
18.936,3.721875,
18.937,3.715625,
18.938,3.7125,
18.939,3.7125,
18.94,3.7125,
18.941,3.740625,
18.942,3.76875,
18.943,3.775,
18.944,3.7875,
18.945,3.803125,
18.946,3.8125,
18.947,3.8,
18.948,3.740625,
18.949,3.7125,
18.95,3.71875,
18.951,3.728125,
18.952,3.721875,
18.953,3.71875,
18.954,3.70625,
18.955,3.690625,
18.956,3.690625,
18.957,3.703125,
18.958,3.690625,
18.959,3.6875,
18.96,3.70625,
18.961,3.690625,
18.962,3.70625,
18.963,3.7375,
18.964,3.7625,
18.965,3.74375,
18.966,3.71875,
18.967,3.715625,
18.968,3.715625,
18.969,3.715625,
18.97,3.721875,
18.971,3.721875,
18.972,3.71875,
18.973,3.728125,
18.974,3.740625,
18.975,3.740625,
18.976,3.73125,
18.977,3.778125,
18.978,4,
18.979,4.415625,
18.98,4.728125,
18.981,4.61875,
18.982,4.009375,
18.983,3.2375,
18.984,2.9125,
18.985,3.259375,
18.986,3.934375,
18.987,4.5,
18.988,4.70625,
18.989,4.621875,
18.99,4.415625,
18.991,4.203125,
18.992,4.05625,
18.993,3.959375,
18.994,3.8875,
18.995,3.85625,
18.996,3.8375,
18.997,3.8375,
18.998,3.825,
18.999,3.821875,
19,3.815625,
19.001,3.815625,
19.002,3.809375,
19.003,3.79375,
19.004,3.778125,
19.005,3.76875,
19.006,3.80625,
19.007,3.821875,
19.008,3.821875,
19.009,3.803125,
19.01,3.803125,
19.011,3.796875,
19.012,3.80625,
19.013,3.809375,
19.014,3.80625,
19.015,3.8,
19.016,3.8,
19.017,3.809375,
19.018,3.79375,
19.019,3.775,
19.02,3.7625,
19.021,3.7625,
19.022,3.746875,
19.023,3.74375,
19.024,3.740625,
19.025,3.74375,
19.026,3.73125,
19.027,3.721875,
19.028,3.734375,
19.029,3.74375,
19.03,3.75,
19.031,3.74375,
19.032,3.7375,
19.033,3.728125,
19.034,3.7375,
19.035,3.734375,
19.036,3.721875,
19.037,3.7,
19.038,3.703125,
19.039,3.71875,
19.04,3.715625,
19.041,3.71875,
19.042,3.715625,
19.043,3.70625,
19.044,3.7,
19.045,3.703125,
19.046,3.709375,
19.047,3.715625,
19.048,3.7125,
19.049,3.7125,
19.05,3.71875,
19.051,3.721875,
19.052,3.721875,
19.053,3.715625,
19.054,3.696875,
19.055,3.69375,
19.056,3.7,
19.057,3.7125,
19.058,3.71875,
19.059,3.7125,
19.06,3.709375,
19.061,3.709375,
19.062,3.7125,
19.063,3.725,
19.064,3.728125,
19.065,3.728125,
19.066,3.721875,
19.067,3.728125,
19.068,3.74375,
19.069,3.725,
19.07,3.71875,
19.071,3.7375,
19.072,3.76875,
19.073,3.7875,
19.074,3.8,
19.075,3.80625,
19.076,3.76875,
19.077,3.725,
19.078,3.71875,
19.079,3.728125,
19.08,3.75,
19.081,3.75625,
19.082,3.75,
19.083,3.71875,
19.084,3.70625,
19.085,3.703125,
19.086,3.684375,
19.087,3.675,
19.088,3.68125,
19.089,3.703125,
19.09,3.709375,
19.091,3.70625,
19.092,3.709375,
19.093,3.7125,
19.094,3.703125,
19.095,3.709375,
19.096,3.71875,
19.097,3.725,
19.098,3.725,
19.099,3.740625,
19.1,3.740625,
19.101,3.725,
19.102,3.71875,
19.103,3.721875,
19.104,3.728125,
19.105,3.7625,
19.106,3.9875,
19.107,4.403125,
19.108,4.7125,
19.109,4.58125,
19.11,3.9625,
19.111,3.209375,
19.112,2.915625,
19.113,3.303125,
19.114,3.990625,
19.115,4.53125,
19.116,4.709375,
19.117,4.625,
19.118,4.43125,
19.119,4.20625,
19.12,4.034375,
19.121,3.9375,
19.122,3.884375,
19.123,3.853125,
19.124,3.84375,
19.125,3.825,
19.126,3.80625,
19.127,3.809375,
19.128,3.815625,
19.129,3.81875,
19.13,3.8125,
19.131,3.803125,
19.132,3.825,
19.133,3.81875,
19.134,3.821875,
19.135,3.828125,
19.136,3.83125,
19.137,3.80625,
19.138,3.796875,
19.139,3.8,
19.14,3.803125,
19.141,3.8125,
19.142,3.81875,
19.143,3.803125,
19.144,3.7875,
19.145,3.78125,
19.146,3.778125,
19.147,3.778125,
19.148,3.771875,
19.149,3.75625,
19.15,3.7625,
19.151,3.775,
19.152,3.7625,
19.153,3.734375,
19.154,3.721875,
19.155,3.7125,
19.156,3.71875,
19.157,3.728125,
19.158,3.725,
19.159,3.7125,
19.16,3.721875,
19.161,3.728125,
19.162,3.7375,
19.163,3.728125,
19.164,3.734375,
19.165,3.73125,
19.166,3.709375,
19.167,3.715625,
19.168,3.725,
19.169,3.71875,
19.17,3.7,
19.171,3.69375,
19.172,3.7,
19.173,3.709375,
19.174,3.73125,
19.175,3.728125,
19.176,3.7125,
19.177,3.7,
19.178,3.7125,
19.179,3.73125,
19.18,3.725,
19.181,3.725,
19.182,3.725,
19.183,3.71875,
19.184,3.721875,
19.185,3.725,
19.186,3.721875,
19.187,3.709375,
19.188,3.709375,
19.189,3.725,
19.19,3.728125,
19.191,3.71875,
19.192,3.70625,
19.193,3.7125,
19.194,3.7,
19.195,3.721875,
19.196,3.746875,
19.197,3.790625,
19.198,3.809375,
19.199,3.815625,
19.2,3.80625,
19.201,3.80625,
19.202,3.771875,
19.203,3.7375,
19.204,3.715625,
19.205,3.7125,
19.206,3.721875,
19.207,3.721875,
19.208,3.7125,
19.209,3.7,
19.21,3.703125,
19.211,3.70625,
19.212,3.6875,
19.213,3.684375,
19.214,3.69375,
19.215,3.703125,
19.216,3.709375,
19.217,3.709375,
19.218,3.721875,
19.219,3.715625,
19.22,3.709375,
19.221,3.709375,
19.222,3.715625,
19.223,3.7,
19.224,3.696875,
19.225,3.715625,
19.226,3.725,
19.227,3.7125,
19.228,3.709375,
19.229,3.725,
19.23,3.7625,
19.231,3.93125,
19.232,4.3,
19.233,4.625,
19.234,4.584375,
19.235,4.053125,
19.236,3.30625,
19.237,2.88125,
19.238,3.146875,
19.239,3.828125,
19.24,4.44375,
19.241,4.7,
19.242,4.640625,
19.243,4.44375,
19.244,4.215625,
19.245,4.05625,
19.246,3.971875,
19.247,3.91875,
19.248,3.871875,
19.249,3.84375,
19.25,3.81875,
19.251,3.79375,
19.252,3.7875,
19.253,3.78125,
19.254,3.78125,
19.255,3.778125,
19.256,3.784375,
19.257,3.790625,
19.258,3.8,
19.259,3.79375,
19.26,3.78125,
19.261,3.78125,
19.262,3.7875,
19.263,3.78125,
19.264,3.796875,
19.265,3.80625,
19.266,3.7875,
19.267,3.7875,
19.268,3.790625,
19.269,3.76875,
19.27,3.74375,
19.271,3.74375,
19.272,3.740625,
19.273,3.734375,
19.274,3.728125,
19.275,3.725,
19.276,3.725,
19.277,3.715625,
19.278,3.70625,
19.279,3.721875,
19.28,3.71875,
19.281,3.703125,
19.282,3.7,
19.283,3.70625,
19.284,3.7,
19.285,3.69375,
19.286,3.684375,
19.287,3.659375,
19.288,3.646875,
19.289,3.65625,
19.29,3.66875,
19.291,3.678125,
19.292,3.678125,
19.293,3.684375,
19.294,3.684375,
19.295,3.665625,
19.296,3.671875,
19.297,3.684375,
19.298,3.671875,
19.299,3.6625,
19.3,3.6625,
19.301,3.653125,
19.302,3.653125,
19.303,3.64375,
19.304,3.653125,
19.305,3.634375,
19.306,3.63125,
19.307,3.653125,
19.308,3.678125,
19.309,3.684375,
19.31,3.671875,
19.311,3.665625,
19.312,3.659375,
19.313,3.66875,
19.314,3.665625,
19.315,3.665625,
19.316,3.653125,
19.317,3.671875,
19.318,3.709375,
19.319,3.740625,
19.32,3.74375,
19.321,3.7375,
19.322,3.734375,
19.323,3.715625,
19.324,3.678125,
19.325,3.659375,
19.326,3.66875,
19.327,3.66875,
19.328,3.678125,
19.329,3.66875,
19.33,3.665625,
19.331,3.65625,
19.332,3.64375,
19.333,3.628125,
19.334,3.625,
19.335,3.628125,
19.336,3.64375,
19.337,3.640625,
19.338,3.6375,
19.339,3.646875,
19.34,3.659375,
19.341,3.671875,
19.342,3.66875,
19.343,3.675,
19.344,3.675,
19.345,3.68125,
19.346,3.6875,
19.347,3.690625,
19.348,3.68125,
19.349,3.675,
19.35,3.678125,
19.351,3.696875,
19.352,3.8125,
19.353,4.13125,
19.354,4.521875,
19.355,4.625,
19.356,4.234375,
19.357,3.525,
19.358,2.971875,
19.359,3.025,
19.36,3.59375,
19.361,4.253125,
19.362,4.64375,
19.363,4.684375,
19.364,4.51875,
19.365,4.30625,
19.366,4.109375,
19.367,3.98125,
19.368,3.909375,
19.369,3.8625,
19.37,3.815625,
19.371,3.796875,
19.372,3.796875,
19.373,3.790625,
19.374,3.803125,
19.375,3.8,
19.376,3.796875,
19.377,3.78125,
19.378,3.79375,
19.379,3.803125,
19.38,3.8,
19.381,3.80625,
19.382,3.803125,
19.383,3.796875,
19.384,3.790625,
19.385,3.7875,
19.386,3.775,
19.387,3.76875,
19.388,3.7625,
19.389,3.75625,
19.39,3.7625,
19.391,3.7625,
19.392,3.7625,
19.393,3.75625,
19.394,3.7375,
19.395,3.734375,
19.396,3.740625,
19.397,3.753125,
19.398,3.7375,
19.399,3.721875,
19.4,3.7125,
19.401,3.728125,
19.402,3.71875,
19.403,3.7,
19.404,3.6875,
19.405,3.68125,
19.406,3.690625,
19.407,3.703125,
19.408,3.70625,
19.409,3.703125,
19.41,3.7,
19.411,3.703125,
19.412,3.7125,
19.413,3.709375,
19.414,3.715625,
19.415,3.73125,
19.416,3.7125,
19.417,3.7,
19.418,3.69375,
19.419,3.6875,
19.42,3.690625,
19.421,3.684375,
19.422,3.7,
19.423,3.69375,
19.424,3.7,
19.425,3.7125,
19.426,3.703125,
19.427,3.696875,
19.428,3.7,
19.429,3.715625,
19.43,3.725,
19.431,3.725,
19.432,3.70625,
19.433,3.70625,
19.434,3.70625,
19.435,3.703125,
19.436,3.696875,
19.437,3.7,
19.438,3.6875,
19.439,3.696875,
19.44,3.703125,
19.441,3.70625,
19.442,3.7,
19.443,3.73125,
19.444,3.765625,
19.445,3.790625,
19.446,3.803125,
19.447,3.796875,
19.448,3.790625,
19.449,3.7375,
19.45,3.7,
19.451,3.7125,
19.452,3.715625,
19.453,3.703125,
19.454,3.696875,
19.455,3.690625,
19.456,3.684375,
19.457,3.690625,
19.458,3.70625,
19.459,3.696875,
19.46,3.6875,
19.461,3.690625,
19.462,3.703125,
19.463,3.71875,
19.464,3.721875,
19.465,3.721875,
19.466,3.715625,
19.467,3.709375,
19.468,3.71875,
19.469,3.715625,
19.47,3.7,
19.471,3.696875,
19.472,3.70625,
19.473,3.70625,
19.474,3.70625,
19.475,3.71875,
19.476,3.73125,
19.477,3.721875,
19.478,3.75625,
19.479,3.971875,
19.48,4.3875,
19.481,4.7,
19.482,4.59375,
19.483,3.996875,
19.484,3.240625,
19.485,2.909375,
19.486,3.240625,
19.487,3.9125,
19.488,4.471875,
19.489,4.7,
19.49,4.634375,
19.491,4.425,
19.492,4.20625,
19.493,4.046875,
19.494,3.95625,
19.495,3.896875,
19.496,3.846875,
19.497,3.83125,
19.498,3.815625,
19.499,3.803125,
19.5,3.809375,
19.501,3.8125,
19.502,3.8125,
19.503,3.79375,
19.504,3.771875,
19.505,3.771875,
19.506,3.76875,
19.507,3.778125,
19.508,3.796875,
19.509,3.803125,
19.51,3.8,
19.511,3.79375,
19.512,3.803125,
19.513,3.8125,
19.514,3.796875,
19.515,3.7875,
19.516,3.784375,
19.517,3.784375,
19.518,3.796875,
19.519,3.78125,
19.52,3.75625,
19.521,3.734375,
19.522,3.734375,
19.523,3.73125,
19.524,3.71875,
19.525,3.728125,
19.526,3.734375,
19.527,3.7375,
19.528,3.7375,
19.529,3.728125,
19.53,3.73125,
19.531,3.715625,
19.532,3.709375,
19.533,3.715625,
19.534,3.721875,
19.535,3.728125,
19.536,3.728125,
19.537,3.71875,
19.538,3.6875,
19.539,3.678125,
19.54,3.684375,
19.541,3.7,
19.542,3.70625,
19.543,3.7,
19.544,3.709375,
19.545,3.7125,
19.546,3.70625,
19.547,3.70625,
19.548,3.70625,
19.549,3.703125,
19.55,3.715625,
19.551,3.7375,
19.552,3.728125,
19.553,3.703125,
19.554,3.69375,
19.555,3.7,
19.556,3.703125,
19.557,3.696875,
19.558,3.70625,
19.559,3.728125,
19.56,3.715625,
19.561,3.7125,
19.562,3.709375,
19.563,3.709375,
19.564,3.7,
19.565,3.7,
19.566,3.7,
19.567,3.7,
19.568,3.7125,
19.569,3.728125,
19.57,3.73125,
19.571,3.740625,
19.572,3.7625,
19.573,3.790625,
19.574,3.79375,
19.575,3.775,
19.576,3.740625,
19.577,3.70625,
19.578,3.703125,
19.579,3.721875,
19.58,3.725,
19.581,3.7125,
19.582,3.696875,
19.583,3.703125,
19.584,3.715625,
19.585,3.70625,
19.586,3.690625,
19.587,3.690625,
19.588,3.678125,
19.589,3.678125,
19.59,3.6875,
19.591,3.70625,
19.592,3.703125,
19.593,3.7,
19.594,3.7125,
19.595,3.721875,
19.596,3.73125,
19.597,3.725,
19.598,3.7125,
19.599,3.69375,
19.6,3.703125,
19.601,3.740625,
19.602,3.759375,
19.603,3.734375,
19.604,3.7125,
19.605,3.8,
19.606,4.128125,
19.607,4.55,
19.608,4.71875,
19.609,4.403125,
19.61,3.665625,
19.611,3.028125,
19.612,2.9875,
19.613,3.51875,
19.614,4.2,
19.615,4.634375,
19.616,4.703125,
19.617,4.540625,
19.618,4.33125,
19.619,4.146875,
19.62,4.0125,
19.621,3.9125,
19.622,3.865625,
19.623,3.834375,
19.624,3.821875,
19.625,3.809375,
19.626,3.803125,
19.627,3.79375,
19.628,3.7875,
19.629,3.803125,
19.63,3.80625,
19.631,3.803125,
19.632,3.78125,
19.633,3.784375,
19.634,3.8125,
19.635,3.81875,
19.636,3.803125,
19.637,3.790625,
19.638,3.784375,
19.639,3.771875,
19.64,3.78125,
19.641,3.784375,
19.642,3.78125,
19.643,3.778125,
19.644,3.78125,
19.645,3.778125,
19.646,3.76875,
19.647,3.765625,
19.648,3.765625,
19.649,3.74375,
19.65,3.734375,
19.651,3.74375,
19.652,3.74375,
19.653,3.725,
19.654,3.709375,
19.655,3.70625,
19.656,3.703125,
19.657,3.71875,
19.658,3.721875,
19.659,3.734375,
19.66,3.71875,
19.661,3.709375,
19.662,3.70625,
19.663,3.703125,
19.664,3.7,
19.665,3.7,
19.666,3.709375,
19.667,3.703125,
19.668,3.725,
19.669,3.728125,
19.67,3.715625,
19.671,3.69375,
19.672,3.6875,
19.673,3.690625,
19.674,3.7,
19.675,3.715625,
19.676,3.7125,
19.677,3.71875,
19.678,3.7125,
19.679,3.71875,
19.68,3.725,
19.681,3.721875,
19.682,3.703125,
19.683,3.70625,
19.684,3.71875,
19.685,3.734375,
19.686,3.71875,
19.687,3.703125,
19.688,3.690625,
19.689,3.69375,
19.69,3.7125,
19.691,3.715625,
19.692,3.70625,
19.693,3.7,
19.694,3.725,
19.695,3.73125,
19.696,3.725,
19.697,3.725,
19.698,3.734375,
19.699,3.76875,
19.7,3.7875,
19.701,3.8125,
19.702,3.8125,
19.703,3.778125,
19.704,3.721875,
19.705,3.6875,
19.706,3.690625,
19.707,3.70625,
19.708,3.728125,
19.709,3.734375,
19.71,3.71875,
19.711,3.709375,
19.712,3.7,
19.713,3.709375,
19.714,3.703125,
19.715,3.68125,
19.716,3.69375,
19.717,3.703125,
19.718,3.71875,
19.719,3.725,
19.72,3.7125,
19.721,3.690625,
19.722,3.69375,
19.723,3.709375,
19.724,3.709375,
19.725,3.721875,
19.726,3.728125,
19.727,3.74375,
19.728,3.734375,
19.729,3.71875,
19.73,3.715625,
19.731,3.725,
19.732,3.815625,
19.733,4.115625,
19.734,4.534375,
19.735,4.721875,
19.736,4.415625,
19.737,3.6875,
19.738,3.03125,
19.739,2.95625,
19.74,3.5,
19.741,4.2,
19.742,4.64375,
19.743,4.703125,
19.744,4.54375,
19.745,4.325,
19.746,4.146875,
19.747,3.996875,
19.748,3.9125,
19.749,3.865625,
19.75,3.840625,
19.751,3.8375,
19.752,3.83125,
19.753,3.809375,
19.754,3.784375,
19.755,3.775,
19.756,3.784375,
19.757,3.778125,
19.758,3.784375,
19.759,3.8,
19.76,3.796875,
19.761,3.790625,
19.762,3.796875,
19.763,3.796875,
19.764,3.796875,
19.765,3.784375,
19.766,3.796875,
19.767,3.796875,
19.768,3.803125,
19.769,3.79375,
19.77,3.7875,
19.771,3.76875,
19.772,3.759375,
19.773,3.759375,
19.774,3.74375,
19.775,3.734375,
19.776,3.725,
19.777,3.7375,
19.778,3.7375,
19.779,3.73125,
19.78,3.73125,
19.781,3.734375,
19.782,3.715625,
19.783,3.7125,
19.784,3.7125,
19.785,3.70625,
19.786,3.684375,
19.787,3.68125,
19.788,3.69375,
19.789,3.6875,
19.79,3.690625,
19.791,3.696875,
19.792,3.703125,
19.793,3.696875,
19.794,3.690625,
19.795,3.6875,
19.796,3.690625,
19.797,3.696875,
19.798,3.696875,
19.799,3.684375,
19.8,3.66875,
19.801,3.69375,
19.802,3.709375,
19.803,3.7,
19.804,3.665625,
19.805,3.66875,
19.806,3.675,
19.807,3.6875,
19.808,3.690625,
19.809,3.7,
19.81,3.6875,
19.811,3.684375,
19.812,3.6875,
19.813,3.678125,
19.814,3.671875,
19.815,3.675,
19.816,3.684375,
19.817,3.696875,
19.818,3.70625,
19.819,3.69375,
19.82,3.678125,
19.821,3.690625,
19.822,3.7125,
19.823,3.74375,
19.824,3.75625,
19.825,3.759375,
19.826,3.74375,
19.827,3.71875,
19.828,3.6875,
19.829,3.678125,
19.83,3.6875,
19.831,3.69375,
19.832,3.68125,
19.833,3.675,
19.834,3.690625,
19.835,3.68125,
19.836,3.6625,
19.837,3.6375,
19.838,3.6375,
19.839,3.61875,
19.84,3.625,
19.841,3.63125,
19.842,3.659375,
19.843,3.66875,
19.844,3.675,
19.845,3.675,
19.846,3.665625,
19.847,3.675,
19.848,3.675,
19.849,3.671875,
19.85,3.653125,
19.851,3.653125,
19.852,3.678125,
19.853,3.678125,
19.854,3.6625,
19.855,3.68125,
19.856,3.871875,
19.857,4.246875,
19.858,4.56875,
19.859,4.528125,
19.86,4.003125,
19.861,3.259375,
19.862,2.871875,
19.863,3.1375,
19.864,3.803125,
19.865,4.39375,
19.866,4.6625,
19.867,4.603125,
19.868,4.4125,
19.869,4.18125,
19.87,4.00625,
19.871,3.9,
19.872,3.834375,
19.873,3.803125,
19.874,3.78125,
19.875,3.7625,
19.876,3.759375,
19.877,3.75,
19.878,3.74375,
19.879,3.740625,
19.88,3.74375,
19.881,3.74375,
19.882,3.728125,
19.883,3.725,
19.884,3.7375,
19.885,3.75625,
19.886,3.753125,
19.887,3.740625,
19.888,3.73125,
19.889,3.725,
19.89,3.746875,
19.891,3.75,
19.892,3.740625,
19.893,3.728125,
19.894,3.73125,
19.895,3.725,
19.896,3.7125,
19.897,3.703125,
19.898,3.6875,
19.899,3.696875,
19.9,3.675,
19.901,3.684375,
19.902,3.690625,
19.903,3.696875,
19.904,3.678125,
19.905,3.665625,
19.906,3.659375,
19.907,3.665625,
19.908,3.68125,
19.909,3.690625,
19.91,3.690625,
19.911,3.678125,
19.912,3.675,
19.913,3.678125,
19.914,3.675,
19.915,3.6625,
19.916,3.659375,
19.917,3.678125,
19.918,3.69375,
19.919,3.69375,
19.92,3.678125,
19.921,3.671875,
19.922,3.6625,
19.923,3.665625,
19.924,3.675,
19.925,3.671875,
19.926,3.675,
19.927,3.68125,
19.928,3.684375,
19.929,3.675,
19.93,3.675,
19.931,3.6875,
19.932,3.68125,
19.933,3.675,
19.934,3.6875,
19.935,3.69375,
19.936,3.69375,
19.937,3.684375,
19.938,3.678125,
19.939,3.675,
19.94,3.68125,
19.941,3.690625,
19.942,3.7,
19.943,3.6875,
19.944,3.70625,
19.945,3.765625,
19.946,3.796875,
19.947,3.79375,
19.948,3.76875,
19.949,3.7375,
19.95,3.690625,
19.951,3.671875,
19.952,3.678125,
19.953,3.69375,
19.954,3.684375,
19.955,3.68125,
19.956,3.6875,
19.957,3.6875,
19.958,3.671875,
19.959,3.6625,
19.96,3.671875,
19.961,3.6625,
19.962,3.6625,
19.963,3.675,
19.964,3.678125,
19.965,3.678125,
19.966,3.68125,
19.967,3.69375,
19.968,3.70625,
19.969,3.709375,
19.97,3.7,
19.971,3.68125,
19.972,3.665625,
19.973,3.68125,
19.974,3.703125,
19.975,3.69375,
19.976,3.6875,
19.977,3.7,
19.978,3.725,
19.979,3.81875,
19.98,4.128125,
19.981,4.53125,
19.982,4.659375,
19.983,4.296875,
19.984,3.575,
19.985,2.996875,
19.986,3.003125,
19.987,3.55625,
19.988,4.225,
19.989,4.628125,
19.99,4.66875,
19.991,4.503125,
19.992,4.3,
19.993,4.103125,
19.994,3.975,
19.995,3.909375,
19.996,3.871875,
19.997,3.81875,
19.998,3.778125,
19.999,3.7625,
20,3.7625,
20.001,3.78125,
20.002,3.803125,
20.003,3.796875,
20.004,3.775,
20.005,3.759375,
20.006,3.76875,
20.007,3.765625,
20.008,3.771875,
20.009,3.771875,
20.01,3.78125,
20.011,3.78125,
20.012,3.778125,
20.013,3.771875,
20.014,3.765625,
20.015,3.753125,
20.016,3.740625,
20.017,3.7625,
20.018,3.771875,
20.019,3.775,
20.02,3.75625,
20.021,3.728125,
20.022,3.7125,
20.023,3.7,
20.024,3.70625,
20.025,3.71875,
20.026,3.7125,
20.027,3.715625,
20.028,3.73125,
20.029,3.728125,
20.03,3.7125,
20.031,3.690625,
20.032,3.6875,
20.033,3.684375,
20.034,3.7125,
20.035,3.73125,
20.036,3.7125,
20.037,3.690625,
20.038,3.68125,
20.039,3.6875,
20.04,3.684375,
20.041,3.68125,
20.042,3.6875,
20.043,3.703125,
20.044,3.69375,
20.045,3.690625,
20.046,3.6875,
20.047,3.684375,
20.048,3.678125,
20.049,3.671875,
20.05,3.68125,
20.051,3.703125,
20.052,3.721875,
20.053,3.715625,
20.054,3.69375,
20.055,3.678125,
20.056,3.68125,
20.057,3.696875,
20.058,3.70625,
20.059,3.69375,
20.06,3.696875,
20.061,3.703125,
20.062,3.7,
20.063,3.696875,
20.064,3.6875,
20.065,3.665625,
20.066,3.66875,
20.067,3.6875,
20.068,3.709375,
20.069,3.715625,
20.07,3.70625,
20.071,3.70625,
20.072,3.6875,
20.073,3.70625,
20.074,3.7375,
20.075,3.76875,
20.076,3.7875,
20.077,3.78125,
20.078,3.76875,
20.079,3.721875,
20.08,3.696875,
20.081,3.690625,
20.082,3.690625,
20.083,3.6875,
20.084,3.70625,
20.085,3.71875,
20.086,3.70625,
20.087,3.675,
20.088,3.66875,
20.089,3.671875,
20.09,3.66875,
20.091,3.671875,
20.092,3.68125,
20.093,3.69375,
20.094,3.703125,
20.095,3.70625,
20.096,3.721875,
20.097,3.7125,
20.098,3.684375,
20.099,3.684375,
20.1,3.696875,
20.101,3.709375,
20.102,3.73125,
20.103,3.728125,
20.104,3.70625,
20.105,3.678125,
20.106,3.68125,
20.107,3.70625,
20.108,3.828125,
20.109,4.159375,
20.11,4.559375,
20.111,4.690625,
20.112,4.340625,
20.113,3.59375,
20.114,2.98125,
20.115,2.96875,
20.116,3.540625,
20.117,4.234375,
20.118,4.659375,
20.119,4.703125,
20.12,4.525,
20.121,4.296875,
20.122,4.09375,
20.123,3.95625,
20.124,3.884375,
20.125,3.84375,
20.126,3.809375,
20.127,3.7875,
20.128,3.790625,
20.129,3.784375,
20.13,3.7875,
20.131,3.8,
20.132,3.79375,
20.133,3.771875,
20.134,3.78125,
20.135,3.8,
20.136,3.809375,
20.137,3.79375,
20.138,3.78125,
20.139,3.778125,
20.14,3.78125,
20.141,3.790625,
20.142,3.7875,
20.143,3.784375,
20.144,3.765625,
20.145,3.771875,
20.146,3.778125,
20.147,3.778125,
20.148,3.765625,
20.149,3.7625,
20.15,3.753125,
20.151,3.753125,
20.152,3.74375,
20.153,3.728125,
20.154,3.721875,
20.155,3.70625,
20.156,3.7,
20.157,3.709375,
20.158,3.70625,
20.159,3.70625,
20.16,3.703125,
20.161,3.703125,
20.162,3.684375,
20.163,3.7,
20.164,3.7125,
20.165,3.709375,
20.166,3.684375,
20.167,3.678125,
20.168,3.703125,
20.169,3.709375,
20.17,3.6875,
20.171,3.678125,
20.172,3.665625,
20.173,3.68125,
20.174,3.703125,
20.175,3.703125,
20.176,3.68125,
20.177,3.684375,
20.178,3.69375,
20.179,3.70625,
20.18,3.70625,
20.181,3.7,
20.182,3.703125,
20.183,3.678125,
20.184,3.684375,
20.185,3.703125,
20.186,3.709375,
20.187,3.690625,
20.188,3.68125,
20.189,3.684375,
20.19,3.68125,
20.191,3.684375,
20.192,3.69375,
20.193,3.7,
20.194,3.684375,
20.195,3.684375,
20.196,3.7,
20.197,3.7125,
20.198,3.7,
20.199,3.684375,
20.2,3.70625,
20.201,3.75,
20.202,3.7875,
20.203,3.796875,
20.204,3.784375,
20.205,3.746875,
20.206,3.7125,
20.207,3.69375,
20.208,3.7,
20.209,3.696875,
20.21,3.709375,
20.211,3.7125,
20.212,3.69375,
20.213,3.690625,
20.214,3.6875,
20.215,3.690625,
20.216,3.671875,
20.217,3.671875,
20.218,3.690625,
20.219,3.703125,
20.22,3.703125,
20.221,3.69375,
20.222,3.6875,
20.223,3.6875,
20.224,3.703125,
20.225,3.7125,
20.226,3.70625,
20.227,3.6875,
20.228,3.70625,
20.229,3.73125,
20.23,3.725,
20.231,3.7125,
20.232,3.7125,
20.233,3.709375,
20.234,3.74375,
20.235,3.91875,
20.236,4.2875,
20.237,4.628125,
20.238,4.634375,
20.239,4.16875,
20.24,3.40625,
20.241,2.921875,
20.242,3.090625,
20.243,3.7375,
20.244,4.3625,
20.245,4.665625,
20.246,4.65,
20.247,4.478125,
20.248,4.25,
20.249,4.065625,
20.25,3.95,
20.251,3.88125,
20.252,3.85,
20.253,3.834375,
20.254,3.821875,
20.255,3.79375,
20.256,3.78125,
20.257,3.784375,
20.258,3.778125,
20.259,3.771875,
20.26,3.778125,
20.261,3.7875,
20.262,3.7875,
20.263,3.79375,
20.264,3.790625,
20.265,3.796875,
20.266,3.784375,
20.267,3.79375,
20.268,3.8125,
20.269,3.803125,
20.27,3.78125,
20.271,3.778125,
20.272,3.778125,
20.273,3.753125,
20.274,3.753125,
20.275,3.75625,
20.276,3.746875,
20.277,3.734375,
20.278,3.734375,
20.279,3.746875,
20.28,3.75,
20.281,3.740625,
20.282,3.734375,
20.283,3.709375,
20.284,3.703125,
20.285,3.71875,
20.286,3.71875,
20.287,3.7,
20.288,3.68125,
20.289,3.696875,
20.29,3.70625,
20.291,3.70625,
20.292,3.6875,
20.293,3.7,
20.294,3.7,
20.295,3.7,
20.296,3.69375,
20.297,3.703125,
20.298,3.709375,
20.299,3.7,
20.3,3.696875,
20.301,3.703125,
20.302,3.696875,
20.303,3.69375,
20.304,3.69375,
20.305,3.675,
20.306,3.678125,
20.307,3.684375,
20.308,3.696875,
20.309,3.690625,
20.31,3.678125,
20.311,3.696875,
20.312,3.69375,
20.313,3.709375,
20.314,3.70625,
20.315,3.703125,
20.316,3.6875,
20.317,3.684375,
20.318,3.6875,
20.319,3.69375,
20.32,3.69375,
20.321,3.7,
20.322,3.70625,
20.323,3.703125,
20.324,3.703125,
20.325,3.70625,
20.326,3.73125,
20.327,3.75,
20.328,3.78125,
20.329,3.784375,
20.33,3.778125,
20.331,3.75,
20.332,3.715625,
20.333,3.6875,
20.334,3.6875,
20.335,3.715625,
20.336,3.73125,
20.337,3.70625,
20.338,3.675,
20.339,3.671875,
20.34,3.671875,
20.341,3.675,
20.342,3.66875,
20.343,3.66875,
20.344,3.6625,
20.345,3.675,
20.346,3.696875,
20.347,3.703125,
20.348,3.6875,
20.349,3.68125,
20.35,3.690625,
20.351,3.703125,
20.352,3.7,
20.353,3.69375,
20.354,3.7,
20.355,3.6875,
20.356,3.68125,
20.357,3.68125,
20.358,3.7,
20.359,3.728125,
20.36,3.884375,
20.361,4.24375,
20.362,4.584375,
20.363,4.59375,
20.364,4.1125,
20.365,3.38125,
20.366,2.903125,
20.367,3.10625,
20.368,3.775,
20.369,4.40625,
20.37,4.696875,
20.371,4.64375,
20.372,4.434375,
20.373,4.2125,
20.374,4.053125,
20.375,3.953125,
20.376,3.8875,
20.377,3.83125,
20.378,3.8125,
20.379,3.796875,
20.38,3.7875,
20.381,3.78125,
20.382,3.790625,
20.383,3.778125,
20.384,3.765625,
20.385,3.775,
20.386,3.778125,
20.387,3.771875,
20.388,3.75625,
20.389,3.75625,
20.39,3.759375,
20.391,3.765625,
20.392,3.771875,
20.393,3.765625,
20.394,3.753125,
20.395,3.746875,
20.396,3.765625,
20.397,3.778125,
20.398,3.7625,
20.399,3.7375,
20.4,3.728125,
20.401,3.7375,
20.402,3.725,
20.403,3.703125,
20.404,3.6875,
20.405,3.69375,
20.406,3.696875,
20.407,3.70625,
20.408,3.70625,
20.409,3.684375,
20.41,3.671875,
20.411,3.66875,
20.412,3.65,
20.413,3.65,
20.414,3.665625,
20.415,3.69375,
20.416,3.6875,
20.417,3.66875,
20.418,3.6625,
20.419,3.665625,
20.42,3.653125,
20.421,3.646875,
20.422,3.64375,
20.423,3.6375,
20.424,3.646875,
20.425,3.653125,
20.426,3.65625,
20.427,3.646875,
20.428,3.646875,
20.429,3.653125,
20.43,3.65625,
20.431,3.653125,
20.432,3.65,
20.433,3.6625,
20.434,3.659375,
20.435,3.6625,
20.436,3.65625,
20.437,3.65,
20.438,3.65,
20.439,3.65,
20.44,3.64375,
20.441,3.65625,
20.442,3.65625,
20.443,3.653125,
20.444,3.65,
20.445,3.653125,
20.446,3.6875,
20.447,3.74375,
20.448,3.759375,
20.449,3.75625,
20.45,3.74375,
20.451,3.709375,
20.452,3.671875,
20.453,3.646875,
20.454,3.646875,
20.455,3.659375,
20.456,3.653125,
20.457,3.65625,
20.458,3.66875,
20.459,3.6625,
20.46,3.6375,
20.461,3.63125,
20.462,3.6375,
20.463,3.640625,
20.464,3.64375,
20.465,3.6625,
20.466,3.671875,
20.467,3.675,
20.468,3.678125,
20.469,3.68125,
20.47,3.671875,
20.471,3.671875,
20.472,3.671875,
20.473,3.66875,
20.474,3.665625,
20.475,3.684375,
20.476,3.7,
20.477,3.678125,
20.478,3.678125,
20.479,3.715625,
20.48,3.890625,
20.481,4.2625,
20.482,4.603125,
20.483,4.6125,
20.484,4.13125,
20.485,3.390625,
20.486,2.934375,
20.487,3.1,
20.488,3.725,
20.489,4.359375,
20.49,4.690625,
20.491,4.678125,
20.492,4.46875,
20.493,4.25,
20.494,4.090625,
20.495,3.959375,
20.496,3.890625,
20.497,3.85,
20.498,3.828125,
20.499,3.80625,
20.5,3.809375,
20.501,3.815625,
20.502,3.815625,
20.503,3.796875,
20.504,3.790625,
20.505,3.778125,
20.506,3.765625,
20.507,3.771875,
20.508,3.78125,
20.509,3.775,
20.51,3.765625,
20.511,3.76875,
20.512,3.78125,
20.513,3.7875,
20.514,3.78125,
20.515,3.765625,
20.516,3.76875,
20.517,3.775,
20.518,3.796875,
20.519,3.796875,
20.52,3.76875,
20.521,3.740625,
20.522,3.73125,
20.523,3.734375,
20.524,3.721875,
20.525,3.7125,
20.526,3.71875,
20.527,3.715625,
20.528,3.70625,
20.529,3.70625,
20.53,3.7125,
20.531,3.721875,
20.532,3.728125,
20.533,3.725,
20.534,3.709375,
20.535,3.71875,
20.536,3.7125,
20.537,3.70625,
20.538,3.678125,
20.539,3.665625,
20.54,3.684375,
20.541,3.7,
20.542,3.696875,
20.543,3.696875,
20.544,3.703125,
20.545,3.703125,
20.546,3.70625,
20.547,3.703125,
20.548,3.709375,
20.549,3.70625,
20.55,3.7,
20.551,3.7,
20.552,3.70625,
20.553,3.7,
20.554,3.69375,
20.555,3.69375,
20.556,3.678125,
20.557,3.675,
20.558,3.6875,
20.559,3.70625,
20.56,3.696875,
20.561,3.696875,
20.562,3.7,
20.563,3.70625,
20.564,3.70625,
20.565,3.70625,
20.566,3.703125,
20.567,3.690625,
20.568,3.715625,
20.569,3.734375,
20.57,3.725,
20.571,3.715625,
20.572,3.746875,
20.573,3.775,
20.574,3.79375,
20.575,3.778125,
20.576,3.7625,
20.577,3.728125,
20.578,3.7,
20.579,3.709375,
20.58,3.728125,
20.581,3.73125,
20.582,3.715625,
20.583,3.7125,
20.584,3.70625,
20.585,3.70625,
20.586,3.703125,
20.587,3.703125,
20.588,3.684375,
20.589,3.675,
20.59,3.6875,
20.591,3.703125,
20.592,3.70625,
20.593,3.7,
20.594,3.70625,
20.595,3.696875,
20.596,3.71875,
20.597,3.721875,
20.598,3.725,
20.599,3.70625,
20.6,3.7125,
20.601,3.725,
20.602,3.734375,
20.603,3.728125,
20.604,3.71875,
20.605,3.715625,
20.606,3.775,
20.607,4.040625,
20.608,4.45,
20.609,4.7125,
20.61,4.5,
20.611,3.809375,
20.612,3.115625,
20.613,2.9375,
20.614,3.396875,
20.615,4.090625,
20.616,4.5875,
20.617,4.70625,
20.618,4.590625,
20.619,4.390625,
20.62,4.175,
20.621,4.003125,
20.622,3.909375,
20.623,3.85,
20.624,3.83125,
20.625,3.81875,
20.626,3.809375,
20.627,3.80625,
20.628,3.7875,
20.629,3.7875,
20.63,3.796875,
20.631,3.803125,
20.632,3.790625,
20.633,3.79375,
20.634,3.80625,
20.635,3.81875,
20.636,3.821875,
20.637,3.815625,
20.638,3.796875,
20.639,3.78125,
20.64,3.778125,
20.641,3.784375,
20.642,3.790625,
20.643,3.7875,
20.644,3.771875,
20.645,3.76875,
20.646,3.759375,
20.647,3.7625,
20.648,3.76875,
20.649,3.74375,
20.65,3.734375,
20.651,3.74375,
20.652,3.753125,
20.653,3.753125,
20.654,3.728125,
20.655,3.7125,
20.656,3.7,
20.657,3.7,
20.658,3.70625,
20.659,3.7125,
20.66,3.69375,
20.661,3.696875,
20.662,3.703125,
20.663,3.70625,
20.664,3.690625,
20.665,3.69375,
20.666,3.703125,
20.667,3.7,
20.668,3.70625,
20.669,3.721875,
20.67,3.728125,
20.671,3.709375,
20.672,3.684375,
20.673,3.684375,
20.674,3.6875,
20.675,3.690625,
20.676,3.696875,
20.677,3.696875,
20.678,3.684375,
20.679,3.69375,
20.68,3.703125,
20.681,3.709375,
20.682,3.7,
20.683,3.7,
20.684,3.7125,
20.685,3.728125,
20.686,3.725,
20.687,3.725,
20.688,3.7125,
20.689,3.6875,
20.69,3.6875,
20.691,3.7,
20.692,3.696875,
20.693,3.7,
20.694,3.715625,
20.695,3.70625,
20.696,3.70625,
20.697,3.70625,
20.698,3.728125,
20.699,3.75,
20.7,3.753125,
20.701,3.775,
20.702,3.803125,
20.703,3.80625,
20.704,3.765625,
20.705,3.71875,
20.706,3.678125,
20.707,3.68125,
20.708,3.70625,
20.709,3.734375,
20.71,3.715625,
20.711,3.690625,
20.712,3.69375,
20.713,3.6875,
20.714,3.690625,
20.715,3.6875,
20.716,3.696875,
20.717,3.6875,
20.718,3.703125,
20.719,3.715625,
20.72,3.71875,
20.721,3.696875,
20.722,3.696875,
20.723,3.696875,
20.724,3.696875,
20.725,3.69375,
20.726,3.7,
20.727,3.709375,
20.728,3.7,
20.729,3.7,
20.73,3.7125,
20.731,3.71875,
20.732,3.70625,
20.733,3.71875,
20.734,3.81875,
20.735,4.15625,
20.736,4.571875,
20.737,4.715625,
20.738,4.38125,
20.739,3.63125,
20.74,3.01875,
20.741,3.003125,
20.742,3.553125,
20.743,4.215625,
20.744,4.628125,
20.745,4.6875,
20.746,4.521875,
20.747,4.3,
20.748,4.121875,
20.749,3.990625,
20.75,3.90625,
20.751,3.859375,
20.752,3.8375,
20.753,3.815625,
20.754,3.8,
20.755,3.7875,
20.756,3.78125,
20.757,3.778125,
20.758,3.778125,
20.759,3.796875,
20.76,3.790625,
20.761,3.78125,
20.762,3.790625,
20.763,3.803125,
20.764,3.80625,
20.765,3.796875,
20.766,3.8,
20.767,3.784375,
20.768,3.790625,
20.769,3.80625,
20.77,3.8,
20.771,3.775,
20.772,3.75,
20.773,3.74375,
20.774,3.75625,
20.775,3.746875,
20.776,3.740625,
20.777,3.75,
20.778,3.7375,
20.779,3.728125,
20.78,3.73125,
20.781,3.734375,
20.782,3.725,
20.783,3.71875,
20.784,3.70625,
20.785,3.70625,
20.786,3.7125,
20.787,3.725,
20.788,3.7125,
20.789,3.69375,
20.79,3.69375,
20.791,3.70625,
20.792,3.70625,
20.793,3.690625,
20.794,3.6875,
20.795,3.69375,
20.796,3.696875,
20.797,3.7,
20.798,3.7,
20.799,3.696875,
20.8,3.684375,
20.801,3.696875,
20.802,3.715625,
20.803,3.715625,
20.804,3.696875,
20.805,3.703125,
20.806,3.703125,
20.807,3.690625,
20.808,3.690625,
20.809,3.703125,
20.81,3.7125,
20.811,3.6875,
20.812,3.675,
20.813,3.6875,
20.814,3.69375,
20.815,3.696875,
20.816,3.7,
20.817,3.69375,
20.818,3.7125,
20.819,3.728125,
20.82,3.734375,
20.821,3.70625,
20.822,3.684375,
20.823,3.690625,
20.824,3.709375,
20.825,3.728125,
20.826,3.74375,
20.827,3.775,
20.828,3.796875,
20.829,3.79375,
20.83,3.784375,
20.831,3.75625,
20.832,3.703125,
20.833,3.696875,
20.834,3.703125,
20.835,3.721875,
20.836,3.725,
20.837,3.721875,
20.838,3.721875,
20.839,3.690625,
20.84,3.6625,
20.841,3.65625,
20.842,3.665625,
20.843,3.684375,
20.844,3.690625,
20.845,3.6875,
20.846,3.684375,
20.847,3.696875,
20.848,3.703125,
20.849,3.703125,
20.85,3.69375,
20.851,3.703125,
20.852,3.721875,
20.853,3.73125,
20.854,3.71875,
20.855,3.715625,
20.856,3.715625,
20.857,3.7125,
20.858,3.7,
20.859,3.69375,
20.86,3.75625,
20.861,3.9875,
20.862,4.4,
20.863,4.6875,
20.864,4.546875,
20.865,3.9125,
20.866,3.1875,
20.867,2.928125,
20.868,3.321875,
20.869,4.01875,
20.87,4.55,
20.871,4.7125,
20.872,4.5875,
20.873,4.3625,
20.874,4.16875,
20.875,4.03125,
20.876,3.9375,
20.877,3.8875,
20.878,3.834375,
20.879,3.790625,
20.88,3.784375,
20.881,3.79375,
20.882,3.79375,
20.883,3.775,
20.884,3.7875,
20.885,3.784375,
20.886,3.771875,
20.887,3.7625,
20.888,3.759375,
20.889,3.76875,
20.89,3.775,
20.891,3.78125,
20.892,3.796875,
20.893,3.796875,
20.894,3.79375,
20.895,3.778125,
20.896,3.75625,
20.897,3.746875,
20.898,3.75,
20.899,3.771875,
20.9,3.76875,
20.901,3.778125,
20.902,3.778125,
20.903,3.759375,
20.904,3.725,
20.905,3.703125,
20.906,3.7,
20.907,3.7,
20.908,3.7125,
20.909,3.725,
20.91,3.70625,
20.911,3.675,
20.912,3.665625,
20.913,3.684375,
20.914,3.68125,
20.915,3.684375,
20.916,3.6875,
20.917,3.703125,
20.918,3.70625,
20.919,3.69375,
20.92,3.675,
20.921,3.675,
20.922,3.665625,
20.923,3.6625,
20.924,3.671875,
20.925,3.6625,
20.926,3.671875,
20.927,3.6875,
20.928,3.6875,
20.929,3.675,
20.93,3.678125,
20.931,3.696875,
20.932,3.678125,
20.933,3.671875,
20.934,3.678125,
20.935,3.69375,
20.936,3.696875,
20.937,3.66875,
20.938,3.6625,
20.939,3.659375,
20.94,3.659375,
20.941,3.6625,
20.942,3.678125,
20.943,3.690625,
20.944,3.684375,
20.945,3.665625,
20.946,3.646875,
20.947,3.659375,
20.948,3.690625,
20.949,3.753125,
20.95,3.771875,
20.951,3.775,
20.952,3.753125,
20.953,3.709375,
20.954,3.65625,
20.955,3.64375,
20.956,3.65625,
20.957,3.65625,
20.958,3.653125,
20.959,3.653125,
20.96,3.65,
20.961,3.63125,
20.962,3.621875,
20.963,3.625,
20.964,3.640625,
20.965,3.640625,
20.966,3.65,
20.967,3.6625,
20.968,3.66875,
20.969,3.671875,
20.97,3.653125,
20.971,3.64375,
20.972,3.634375,
20.973,3.6375,
20.974,3.65,
20.975,3.64375,
20.976,3.634375,
20.977,3.646875,
20.978,3.646875,
20.979,3.628125,
20.98,3.640625,
20.981,3.665625,
20.982,3.834375,
20.983,4.190625,
20.984,4.5375,
20.985,4.565625,
20.986,4.08125,
20.987,3.321875,
20.988,2.853125,
20.989,3.040625,
20.99,3.678125,
20.991,4.325,
20.992,4.646875,
20.993,4.6125,
20.994,4.39375,
20.995,4.178125,
20.996,4.025,
20.997,3.909375,
20.998,3.84375,
20.999,3.809375,
21,3.784375,
21.001,3.76875,
21.002,3.753125,
21.003,3.740625,
21.004,3.725,
21.005,3.71875,
21.006,3.734375,
21.007,3.7375,
21.008,3.746875,
21.009,3.746875,
21.01,3.75625,
21.011,3.74375,
21.012,3.721875,
21.013,3.71875,
21.014,3.740625,
21.015,3.74375,
21.016,3.734375,
21.017,3.746875,
21.018,3.753125,
21.019,3.75,
21.02,3.734375,
21.021,3.721875,
21.022,3.7,
21.023,3.696875,
21.024,3.709375,
21.025,3.715625,
21.026,3.709375,
21.027,3.7,
21.028,3.696875,
21.029,3.69375,
21.03,3.678125,
21.031,3.678125,
21.032,3.6875,
21.033,3.678125,
21.034,3.69375,
21.035,3.69375,
21.036,3.671875,
21.037,3.6625,
21.038,3.665625,
21.039,3.675,
21.04,3.6625,
21.041,3.659375,
21.042,3.678125,
21.043,3.68125,
21.044,3.671875,
21.045,3.66875,
21.046,3.678125,
21.047,3.684375,
21.048,3.675,
21.049,3.6875,
21.05,3.684375,
21.051,3.675,
21.052,3.684375,
21.053,3.6875,
21.054,3.675,
21.055,3.65625,
21.056,3.6625,
21.057,3.675,
21.058,3.671875,
21.059,3.671875,
21.06,3.684375,
21.061,3.684375,
21.062,3.684375,
21.063,3.675,
21.064,3.684375,
21.065,3.684375,
21.066,3.684375,
21.067,3.690625,
21.068,3.7,
21.069,3.69375,
21.07,3.68125,
21.071,3.6875,
21.072,3.7,
21.073,3.73125,
21.074,3.753125,
21.075,3.771875,
21.076,3.7625,
21.077,3.73125,
21.078,3.690625,
21.079,3.66875,
21.08,3.675,
21.081,3.690625,
21.082,3.70625,
21.083,3.690625,
21.084,3.690625,
21.085,3.6875,
21.086,3.675,
21.087,3.653125,
21.088,3.64375,
21.089,3.65625,
21.09,3.653125,
21.091,3.665625,
21.092,3.671875,
21.093,3.684375,
21.094,3.675,
21.095,3.671875,
21.096,3.66875,
21.097,3.675,
21.098,3.684375,
21.099,3.696875,
21.1,3.6875,
21.101,3.6875,
21.102,3.69375,
21.103,3.709375,
21.104,3.709375,
21.105,3.6875,
21.106,3.7,
21.107,3.809375,
21.108,4.13125,
21.109,4.5375,
21.11,4.671875,
21.111,4.315625,
21.112,3.571875,
21.113,2.971875,
21.114,2.971875,
21.115,3.5375,
21.116,4.21875,
21.117,4.628125,
21.118,4.68125,
21.119,4.509375,
21.12,4.275,
21.121,4.1,
21.122,3.965625,
21.123,3.88125,
21.124,3.825,
21.125,3.796875,
21.126,3.784375,
21.127,3.765625,
21.128,3.759375,
21.129,3.76875,
21.13,3.778125,
21.131,3.784375,
21.132,3.7875,
21.133,3.76875,
21.134,3.7625,
21.135,3.771875,
21.136,3.78125,
21.137,3.76875,
21.138,3.7625,
21.139,3.76875,
21.14,3.76875,
21.141,3.7625,
21.142,3.759375,
21.143,3.75625,
21.144,3.753125,
21.145,3.75625,
21.146,3.75625,
21.147,3.753125,
21.148,3.7375,
21.149,3.74375,
21.15,3.740625,
21.151,3.71875,
21.152,3.7125,
21.153,3.715625,
21.154,3.709375,
21.155,3.6875,
21.156,3.6875,
21.157,3.696875,
21.158,3.690625,
21.159,3.6875,
21.16,3.678125,
21.161,3.68125,
21.162,3.6875,
21.163,3.703125,
21.164,3.7125,
21.165,3.703125,
21.166,3.684375,
21.167,3.68125,
21.168,3.68125,
21.169,3.678125,
21.17,3.66875,
21.171,3.671875,
21.172,3.675,
21.173,3.671875,
21.174,3.675,
21.175,3.675,
21.176,3.665625,
21.177,3.671875,
21.178,3.675,
21.179,3.68125,
21.18,3.68125,
21.181,3.6875,
21.182,3.703125,
21.183,3.684375,
21.184,3.671875,
21.185,3.671875,
21.186,3.684375,
21.187,3.678125,
21.188,3.675,
21.189,3.678125,
21.19,3.675,
21.191,3.6875,
21.192,3.6875,
21.193,3.68125,
21.194,3.678125,
21.195,3.68125,
21.196,3.7,
21.197,3.7125,
21.198,3.70625,
21.199,3.7125,
21.2,3.74375,
21.201,3.759375,
21.202,3.76875,
21.203,3.775,
21.204,3.753125,
21.205,3.715625,
21.206,3.690625,
21.207,3.678125,
21.208,3.684375,
21.209,3.69375,
21.21,3.69375,
21.211,3.6875,
21.212,3.678125,
21.213,3.678125,
21.214,3.696875,
21.215,3.6875,
21.216,3.671875,
21.217,3.665625,
21.218,3.684375,
21.219,3.69375,
21.22,3.684375,
21.221,3.678125,
21.222,3.675,
21.223,3.678125,
21.224,3.69375,
21.225,3.69375,
21.226,3.6875,
21.227,3.678125,
21.228,3.68125,
21.229,3.696875,
21.23,3.7,
21.231,3.703125,
21.232,3.715625,
21.233,3.71875,
21.234,3.734375,
21.235,3.91875,
21.236,4.325,
21.237,4.65625,
21.238,4.59375,
21.239,4.0375,
21.24,3.259375,
21.241,2.875,
21.242,3.171875,
21.243,3.840625,
21.244,4.425,
21.245,4.66875,
21.246,4.61875,
21.247,4.428125,
21.248,4.215625,
21.249,4.040625,
21.25,3.940625,
21.251,3.8625,
21.252,3.834375,
21.253,3.809375,
21.254,3.784375,
21.255,3.75625,
21.256,3.75625,
21.257,3.778125,
21.258,3.784375,
21.259,3.765625,
21.26,3.76875,
21.261,3.778125,
21.262,3.778125,
21.263,3.7875,
21.264,3.7875,
21.265,3.796875,
21.266,3.784375,
21.267,3.775,
21.268,3.76875,
21.269,3.76875,
21.27,3.75625,
21.271,3.759375,
21.272,3.746875,
21.273,3.734375,
21.274,3.734375,
21.275,3.74375,
21.276,3.7375,
21.277,3.709375,
21.278,3.7125,
21.279,3.725,
21.28,3.740625,
21.281,3.734375,
21.282,3.721875,
21.283,3.709375,
21.284,3.7,
21.285,3.703125,
21.286,3.703125,
21.287,3.690625,
21.288,3.671875,
21.289,3.68125,
21.29,3.68125,
21.291,3.68125,
21.292,3.671875,
21.293,3.690625,
21.294,3.6875,
21.295,3.68125,
21.296,3.690625,
21.297,3.7,
21.298,3.696875,
21.299,3.6875,
21.3,3.66875,
21.301,3.65,
21.302,3.6625,
21.303,3.678125,
21.304,3.68125,
21.305,3.675,
21.306,3.665625,
21.307,3.675,
21.308,3.66875,
21.309,3.671875,
21.31,3.6625,
21.311,3.675,
21.312,3.6875,
21.313,3.7,
21.314,3.703125,
21.315,3.69375,
21.316,3.684375,
21.317,3.675,
21.318,3.671875,
21.319,3.68125,
21.32,3.66875,
21.321,3.675,
21.322,3.678125,
21.323,3.66875,
21.324,3.675,
21.325,3.69375,
21.326,3.734375,
21.327,3.7625,
21.328,3.765625,
21.329,3.775,
21.33,3.765625,
21.331,3.7375,
21.332,3.703125,
21.333,3.678125,
21.334,3.66875,
21.335,3.696875,
21.336,3.69375,
21.337,3.671875,
21.338,3.65,
21.339,3.653125,
21.34,3.665625,
21.341,3.665625,
21.342,3.665625,
21.343,3.665625,
21.344,3.671875,
21.345,3.675,
21.346,3.68125,
21.347,3.690625,
21.348,3.69375,
21.349,3.7,
21.35,3.696875,
21.351,3.696875,
21.352,3.7,
21.353,3.696875,
21.354,3.70625,
21.355,3.6875,
21.356,3.690625,
21.357,3.696875,
21.358,3.715625,
21.359,3.728125,
21.36,3.8625,
21.361,4.21875,
21.362,4.6,
21.363,4.66875,
21.364,4.234375,
21.365,3.46875,
21.366,2.91875,
21.367,3.05,
21.368,3.68125,
21.369,4.340625,
21.37,4.659375,
21.371,4.646875,
21.372,4.471875,
21.373,4.228125,
21.374,4.040625,
21.375,3.93125,
21.376,3.865625,
21.377,3.81875,
21.378,3.790625,
21.379,3.775,
21.38,3.7625,
21.381,3.765625,
21.382,3.7875,
21.383,3.79375,
21.384,3.775,
21.385,3.778125,
21.386,3.78125,
21.387,3.771875,
21.388,3.746875,
21.389,3.746875,
21.39,3.76875,
21.391,3.78125,
21.392,3.76875,
21.393,3.7625,
21.394,3.740625,
21.395,3.734375,
21.396,3.753125,
21.397,3.759375,
21.398,3.765625,
21.399,3.75625,
21.4,3.759375,
21.401,3.75,
21.402,3.728125,
21.403,3.709375,
21.404,3.703125,
21.405,3.703125,
21.406,3.68125,
21.407,3.684375,
21.408,3.69375,
21.409,3.690625,
21.41,3.6875,
21.411,3.675,
21.412,3.65625,
21.413,3.66875,
21.414,3.678125,
21.415,3.6875,
21.416,3.678125,
21.417,3.665625,
21.418,3.665625,
21.419,3.665625,
21.42,3.65,
21.421,3.64375,
21.422,3.65,
21.423,3.659375,
21.424,3.659375,
21.425,3.646875,
21.426,3.628125,
21.427,3.63125,
21.428,3.646875,
21.429,3.659375,
21.43,3.671875,
21.431,3.678125,
21.432,3.696875,
21.433,3.70625,
21.434,3.68125,
21.435,3.65,
21.436,3.646875,
21.437,3.653125,
21.438,3.659375,
21.439,3.659375,
21.44,3.653125,
21.441,3.659375,
21.442,3.646875,
21.443,3.646875,
21.444,3.64375,
21.445,3.65,
21.446,3.6625,
21.447,3.69375,
21.448,3.73125,
21.449,3.759375,
21.45,3.765625,
21.451,3.76875,
21.452,3.75,
21.453,3.696875,
21.454,3.6625,
21.455,3.65,
21.456,3.65625,
21.457,3.65,
21.458,3.653125,
21.459,3.64375,
21.46,3.63125,
21.461,3.621875,
21.462,3.61875,
21.463,3.61875,
21.464,3.6375,
21.465,3.65625,
21.466,3.646875,
21.467,3.6375,
21.468,3.628125,
21.469,3.628125,
21.47,3.640625,
21.471,3.64375,
21.472,3.6375,
21.473,3.61875,
21.474,3.63125,
21.475,3.640625,
21.476,3.646875,
21.477,3.634375,
21.478,3.61875,
21.479,3.634375,
21.48,3.64375,
21.481,3.653125,
21.482,3.7625,
21.483,4.06875,
21.484,4.45,
21.485,4.6,
21.486,4.259375,
21.487,3.5375,
21.488,2.91875,
21.489,2.915625,
21.49,3.475,
21.491,4.159375,
21.492,4.571875,
21.493,4.64375,
21.494,4.4875,
21.495,4.240625,
21.496,4.05,
21.497,3.9375,
21.498,3.871875,
21.499,3.821875,
21.5,3.778125,
21.501,3.75625,
21.502,3.734375,
21.503,3.721875,
21.504,3.71875,
21.505,3.721875,
21.506,3.721875,
21.507,3.73125,
21.508,3.73125,
21.509,3.73125,
21.51,3.715625,
21.511,3.725,
21.512,3.728125,
21.513,3.728125,
21.514,3.734375,
21.515,3.75,
21.516,3.753125,
21.517,3.734375,
21.518,3.7375,
21.519,3.728125,
21.52,3.7125,
21.521,3.7125,
21.522,3.70625,
21.523,3.703125,
21.524,3.690625,
21.525,3.690625,
21.526,3.69375,
21.527,3.684375,
21.528,3.66875,
21.529,3.6625,
21.53,3.675,
21.531,3.7,
21.532,3.69375,
21.533,3.6875,
21.534,3.675,
21.535,3.678125,
21.536,3.671875,
21.537,3.6625,
21.538,3.640625,
21.539,3.6375,
21.54,3.659375,
21.541,3.678125,
21.542,3.665625,
21.543,3.665625,
21.544,3.678125,
21.545,3.66875,
21.546,3.66875,
21.547,3.675,
21.548,3.684375,
21.549,3.690625,
21.55,3.68125,
21.551,3.68125,
21.552,3.665625,
21.553,3.653125,
21.554,3.65625,
21.555,3.659375,
21.556,3.65625,
21.557,3.659375,
21.558,3.66875,
21.559,3.68125,
21.56,3.671875,
21.561,3.66875,
21.562,3.665625,
21.563,3.66875,
21.564,3.675,
21.565,3.68125,
21.566,3.678125,
21.567,3.678125,
21.568,3.68125,
21.569,3.68125,
21.57,3.6875,
21.571,3.690625,
21.572,3.734375,
21.573,3.765625,
21.574,3.753125,
21.575,3.740625,
21.576,3.7125,
21.577,3.678125,
21.578,3.659375,
21.579,3.665625,
21.58,3.690625,
21.581,3.69375,
21.582,3.696875,
21.583,3.684375,
21.584,3.675,
21.585,3.66875,
21.586,3.671875,
21.587,3.6625,
21.588,3.646875,
21.589,3.64375,
21.59,3.65625,
21.591,3.659375,
21.592,3.6625,
21.593,3.6625,
21.594,3.66875,
21.595,3.665625,
21.596,3.675,
21.597,3.684375,
21.598,3.696875,
21.599,3.7,
21.6,3.69375,
21.601,3.69375,
21.602,3.6875,
21.603,3.671875,
21.604,3.68125,
21.605,3.73125,
21.606,3.940625,
21.607,4.346875,
21.608,4.653125,
21.609,4.578125,
21.61,3.978125,
21.611,3.21875,
21.612,2.8875,
21.613,3.2125,
21.614,3.90625,
21.615,4.4875,
21.616,4.69375,
21.617,4.603125,
21.618,4.396875,
21.619,4.190625,
21.62,4.021875,
21.621,3.9125,
21.622,3.853125,
21.623,3.81875,
21.624,3.8,
21.625,3.771875,
21.626,3.753125,
21.627,3.75,
21.628,3.746875,
21.629,3.759375,
21.63,3.7625,
21.631,3.76875,
21.632,3.771875,
21.633,3.78125,
21.634,3.775,
21.635,3.759375,
21.636,3.746875,
21.637,3.75625,
21.638,3.75625,
21.639,3.759375,
21.64,3.759375,
21.641,3.759375,
21.642,3.759375,
21.643,3.75625,
21.644,3.753125,
21.645,3.7375,
21.646,3.73125,
21.647,3.74375,
21.648,3.746875,
21.649,3.734375,
21.65,3.715625,
21.651,3.709375,
21.652,3.7,
21.653,3.684375,
21.654,3.675,
21.655,3.68125,
21.656,3.6875,
21.657,3.68125,
21.658,3.678125,
21.659,3.68125,
21.66,3.678125,
21.661,3.68125,
21.662,3.6875,
21.663,3.684375,
21.664,3.671875,
21.665,3.69375,
21.666,3.7,
21.667,3.68125,
21.668,3.678125,
21.669,3.671875,
21.67,3.678125,
21.671,3.671875,
21.672,3.6625,
21.673,3.66875,
21.674,3.665625,
21.675,3.671875,
21.676,3.671875,
21.677,3.68125,
21.678,3.678125,
21.679,3.678125,
21.68,3.678125,
21.681,3.68125,
21.682,3.68125,
21.683,3.690625,
21.684,3.684375,
21.685,3.68125,
21.686,3.66875,
21.687,3.6625,
21.688,3.6625,
21.689,3.665625,
21.69,3.671875,
21.691,3.671875,
21.692,3.671875,
21.693,3.678125,
21.694,3.690625,
21.695,3.678125,
21.696,3.675,
21.697,3.68125,
21.698,3.709375,
21.699,3.728125,
21.7,3.7375,
21.701,3.74375,
21.702,3.759375,
21.703,3.75,
21.704,3.725,
21.705,3.69375,
21.706,3.678125,
21.707,3.690625,
21.708,3.715625,
21.709,3.709375,
21.71,3.68125,
21.711,3.6625,
21.712,3.665625,
21.713,3.675,
21.714,3.66875,
21.715,3.678125,
21.716,3.7,
21.717,3.678125,
21.718,3.671875,
21.719,3.671875,
21.72,3.671875,
21.721,3.665625,
21.722,3.671875,
21.723,3.675,
21.724,3.68125,
21.725,3.690625,
21.726,3.69375,
21.727,3.7,
21.728,3.6875,
21.729,3.690625,
21.73,3.70625,
21.731,3.70625,
21.732,3.70625,
21.733,3.709375,
21.734,3.778125,
21.735,4.075,
21.736,4.490625,
21.737,4.69375,
21.738,4.428125,
21.739,3.73125,
21.74,3.05625,
21.741,2.940625,
21.742,3.440625,
21.743,4.121875,
21.744,4.5875,
21.745,4.690625,
21.746,4.534375,
21.747,4.309375,
21.748,4.134375,
21.749,4.009375,
21.75,3.90625,
21.751,3.834375,
21.752,3.803125,
21.753,3.78125,
21.754,3.775,
21.755,3.784375,
21.756,3.76875,
21.757,3.76875,
21.758,3.775,
21.759,3.7875,
21.76,3.775,
21.761,3.76875,
21.762,3.784375,
21.763,3.7875,
21.764,3.790625,
21.765,3.78125,
21.766,3.7875,
21.767,3.784375,
21.768,3.771875,
21.769,3.765625,
21.77,3.759375,
21.771,3.75,
21.772,3.75625,
21.773,3.753125,
21.774,3.746875,
21.775,3.734375,
21.776,3.73125,
21.777,3.7375,
21.778,3.73125,
21.779,3.715625,
21.78,3.70625,
21.781,3.73125,
21.782,3.725,
21.783,3.721875,
21.784,3.7,
21.785,3.703125,
21.786,3.69375,
21.787,3.69375,
21.788,3.690625,
21.789,3.678125,
21.79,3.68125,
21.791,3.684375,
21.792,3.675,
21.793,3.6625,
21.794,3.665625,
21.795,3.678125,
21.796,3.675,
21.797,3.68125,
21.798,3.690625,
21.799,3.7,
21.8,3.68125,
21.801,3.678125,
21.802,3.678125,
21.803,3.678125,
21.804,3.675,
21.805,3.66875,
21.806,3.671875,
21.807,3.671875,
21.808,3.675,
21.809,3.69375,
21.81,3.690625,
21.811,3.6875,
21.812,3.690625,
21.813,3.690625,
21.814,3.703125,
21.815,3.7,
21.816,3.703125,
21.817,3.684375,
21.818,3.6875,
21.819,3.684375,
21.82,3.6875,
21.821,3.684375,
21.822,3.66875,
21.823,3.68125,
21.824,3.684375,
21.825,3.68125,
21.826,3.6875,
21.827,3.709375,
21.828,3.73125,
21.829,3.753125,
21.83,3.759375,
21.831,3.775,
21.832,3.765625,
21.833,3.715625,
21.834,3.690625,
21.835,3.68125,
21.836,3.68125,
21.837,3.69375,
21.838,3.7,
21.839,3.6875,
21.84,3.671875,
21.841,3.6625,
21.842,3.66875,
21.843,3.6625,
21.844,3.66875,
21.845,3.675,
21.846,3.684375,
21.847,3.6875,
21.848,3.7,
21.849,3.703125,
21.85,3.7,
21.851,3.69375,
21.852,3.684375,
21.853,3.678125,
21.854,3.659375,
21.855,3.671875,
21.856,3.703125,
21.857,3.703125,
21.858,3.696875,
21.859,3.69375,
21.86,3.703125,
21.861,3.7125,
21.862,3.771875,
21.863,4.01875,
21.864,4.45,
21.865,4.71875,
21.866,4.54375,
21.867,3.86875,
21.868,3.13125,
21.869,2.9125,
21.87,3.359375,
21.871,4.046875,
21.872,4.5375,
21.873,4.68125,
21.874,4.565625,
21.875,4.35625,
21.876,4.153125,
21.877,4.021875,
21.878,3.925,
21.879,3.8625,
21.88,3.828125,
21.881,3.790625,
21.882,3.778125,
21.883,3.784375,
21.884,3.8,
21.885,3.809375,
21.886,3.790625,
21.887,3.765625,
21.888,3.775,
21.889,3.778125,
21.89,3.778125,
21.891,3.771875,
21.892,3.775,
21.893,3.78125,
21.894,3.78125,
21.895,3.784375,
21.896,3.76875,
21.897,3.778125,
21.898,3.778125,
21.899,3.78125,
21.9,3.771875,
21.901,3.7625,
21.902,3.765625,
21.903,3.753125,
21.904,3.734375,
21.905,3.71875,
21.906,3.734375,
21.907,3.728125,
21.908,3.715625,
21.909,3.715625,
21.91,3.70625,
21.911,3.7,
21.912,3.7,
21.913,3.6875,
21.914,3.690625,
21.915,3.690625,
21.916,3.70625,
21.917,3.70625,
21.918,3.70625,
21.919,3.709375,
21.92,3.703125,
21.921,3.690625,
21.922,3.675,
21.923,3.653125,
21.924,3.659375,
21.925,3.671875,
21.926,3.6875,
21.927,3.69375,
21.928,3.684375,
21.929,3.6875,
21.93,3.69375,
21.931,3.69375,
21.932,3.69375,
21.933,3.696875,
21.934,3.6875,
21.935,3.709375,
21.936,3.709375,
21.937,3.68125,
21.938,3.678125,
21.939,3.678125,
21.94,3.678125,
21.941,3.66875,
21.942,3.671875,
21.943,3.671875,
21.944,3.6875,
21.945,3.69375,
21.946,3.6875,
21.947,3.6625,
21.948,3.675,
21.949,3.7,
21.95,3.7,
21.951,3.696875,
21.952,3.715625,
21.953,3.746875,
21.954,3.759375,
21.955,3.759375,
21.956,3.7625,
21.957,3.74375,
21.958,3.71875,
21.959,3.70625,
21.96,3.703125,
21.961,3.690625,
21.962,3.690625,
21.963,3.7,
21.964,3.69375,
21.965,3.671875,
21.966,3.659375,
21.967,3.665625,
21.968,3.675,
21.969,3.68125,
21.97,3.665625,
21.971,3.65,
21.972,3.640625,
21.973,3.665625,
21.974,3.6875,
21.975,3.68125,
21.976,3.678125,
21.977,3.671875,
21.978,3.659375,
21.979,3.653125,
21.98,3.6625,
21.981,3.678125,
21.982,3.690625,
21.983,3.690625,
21.984,3.70625,
21.985,3.7125,
21.986,3.73125,
21.987,3.90625,
21.988,4.278125,
21.989,4.590625,
21.99,4.521875,
21.991,3.96875,
21.992,3.246875,
21.993,2.8875,
21.994,3.1875,
21.995,3.871875,
21.996,4.45,
21.997,4.675,
21.998,4.603125,
21.999,4.40625,
22,4.184375,
22.001,4.021875,
22.002,3.921875,
22.003,3.85,
22.004,3.803125,
22.005,3.765625,
22.006,3.75625,
22.007,3.759375,
22.008,3.7625,
22.009,3.7625,
22.01,3.765625,
22.011,3.746875,
22.012,3.75625,
22.013,3.759375,
22.014,3.75,
22.015,3.746875,
22.016,3.74375,
22.017,3.753125,
22.018,3.75625,
22.019,3.765625,
22.02,3.7625,
22.021,3.74375,
22.022,3.734375,
22.023,3.728125,
22.024,3.73125,
22.025,3.734375,
22.026,3.715625,
22.027,3.715625,
22.028,3.728125,
22.029,3.7125,
22.03,3.69375,
22.031,3.68125,
22.032,3.68125,
22.033,3.675,
22.034,3.671875,
22.035,3.6875,
22.036,3.675,
22.037,3.659375,
22.038,3.65,
22.039,3.6375,
22.04,3.628125,
22.041,3.634375,
22.042,3.653125,
22.043,3.659375,
22.044,3.64375,
22.045,3.634375,
22.046,3.64375,
22.047,3.64375,
22.048,3.628125,
22.049,3.640625,
22.05,3.65,
22.051,3.64375,
22.052,3.653125,
22.053,3.653125,
22.054,3.63125,
22.055,3.625,
22.056,3.625,
22.057,3.63125,
22.058,3.63125,
22.059,3.6375,
22.06,3.659375,
22.061,3.653125,
22.062,3.6375,
22.063,3.640625,
22.064,3.65,
22.065,3.653125,
22.066,3.65,
22.067,3.653125,
22.068,3.646875,
22.069,3.659375,
22.07,3.65625,
22.071,3.653125,
22.072,3.6375,
22.073,3.640625,
22.074,3.684375,
22.075,3.734375,
22.076,3.753125,
22.077,3.753125,
22.078,3.753125,
22.079,3.725,
22.08,3.671875,
22.081,3.659375,
22.082,3.678125,
22.083,3.678125,
22.084,3.684375,
22.085,3.678125,
22.086,3.678125,
22.087,3.6625,
22.088,3.665625,
22.089,3.6625,
22.09,3.65,
22.091,3.653125,
22.092,3.65625,
22.093,3.6625,
22.094,3.65625,
22.095,3.675,
22.096,3.6875,
22.097,3.675,
22.098,3.684375,
22.099,3.690625,
22.1,3.678125,
22.101,3.675,
22.102,3.690625,
22.103,3.696875,
22.104,3.671875,
22.105,3.65625,
22.106,3.675,
22.107,3.690625,
22.108,3.746875,
22.109,3.978125,
22.11,4.39375,
22.111,4.665625,
22.112,4.5,
22.113,3.878125,
22.114,3.175,
22.115,2.91875,
22.116,3.31875,
22.117,4,
22.118,4.534375,
22.119,4.709375,
22.12,4.596875,
22.121,4.390625,
22.122,4.165625,
22.123,4.009375,
22.124,3.91875,
22.125,3.871875,
22.126,3.83125,
22.127,3.784375,
22.128,3.775,
22.129,3.771875,
22.13,3.78125,
22.131,3.7875,
22.132,3.8,
22.133,3.78125,
22.134,3.771875,
22.135,3.778125,
22.136,3.775,
22.137,3.753125,
22.138,3.753125,
22.139,3.7625,
22.14,3.784375,
22.141,3.784375,
22.142,3.771875,
22.143,3.76875,
22.144,3.753125,
22.145,3.746875,
22.146,3.7625,
22.147,3.775,
22.148,3.775,
22.149,3.765625,
22.15,3.753125,
22.151,3.734375,
22.152,3.725,
22.153,3.725,
22.154,3.725,
22.155,3.709375,
22.156,3.70625,
22.157,3.709375,
22.158,3.7125,
22.159,3.70625,
22.16,3.70625,
22.161,3.684375,
22.162,3.684375,
22.163,3.70625,
22.164,3.721875,
22.165,3.715625,
22.166,3.703125,
22.167,3.696875,
22.168,3.69375,
22.169,3.684375,
22.17,3.684375,
22.171,3.678125,
22.172,3.678125,
22.173,3.671875,
22.174,3.684375,
22.175,3.696875,
22.176,3.6875,
22.177,3.684375,
22.178,3.684375,
22.179,3.68125,
22.18,3.690625,
22.181,3.70625,
22.182,3.715625,
22.183,3.696875,
22.184,3.68125,
22.185,3.69375,
22.186,3.69375,
22.187,3.690625,
22.188,3.6875,
22.189,3.690625,
22.19,3.69375,
22.191,3.6875,
22.192,3.69375,
22.193,3.684375,
22.194,3.68125,
22.195,3.69375,
22.196,3.69375,
22.197,3.696875,
22.198,3.690625,
22.199,3.703125,
22.2,3.71875,
22.201,3.71875,
22.202,3.740625,
22.203,3.765625,
22.204,3.78125,
22.205,3.76875,
22.206,3.759375,
22.207,3.728125,
22.208,3.7,
22.209,3.684375,
22.21,3.690625,
22.211,3.7,
22.212,3.7,
22.213,3.7,
22.214,3.721875,
22.215,3.7125,
22.216,3.6875,
22.217,3.678125,
22.218,3.68125,
22.219,3.684375,
22.22,3.678125,
22.221,3.671875,
22.222,3.671875,
22.223,3.675,
22.224,3.6875,
22.225,3.7,
22.226,3.7,
22.227,3.684375,
22.228,3.696875,
22.229,3.696875,
22.23,3.703125,
22.231,3.7125,
22.232,3.734375,
22.233,3.725,
22.234,3.70625,
22.235,3.696875,
22.236,3.721875,
22.237,3.815625,
22.238,4.13125,
22.239,4.540625,
22.24,4.68125,
22.241,4.35,
22.242,3.6125,
22.243,3.00625,
22.244,2.978125,
22.245,3.534375,
22.246,4.228125,
22.247,4.64375,
22.248,4.69375,
22.249,4.528125,
22.25,4.30625,
22.251,4.10625,
22.252,3.975,
22.253,3.890625,
22.254,3.84375,
22.255,3.803125,
22.256,3.7875,
22.257,3.78125,
22.258,3.784375,
22.259,3.759375,
22.26,3.75625,
22.261,3.771875,
22.262,3.775,
22.263,3.78125,
22.264,3.7875,
22.265,3.80625,
22.266,3.796875,
22.267,3.7875,
22.268,3.784375,
22.269,3.784375,
22.27,3.775,
22.271,3.759375,
22.272,3.753125,
22.273,3.75,
22.274,3.7625,
22.275,3.778125,
22.276,3.7625,
22.277,3.746875,
22.278,3.75,
22.279,3.753125,
22.28,3.753125,
22.281,3.740625,
22.282,3.7375,
22.283,3.734375,
22.284,3.7125,
22.285,3.71875,
22.286,3.721875,
22.287,3.70625,
22.288,3.7,
22.289,3.690625,
22.29,3.690625,
22.291,3.690625,
22.292,3.696875,
22.293,3.709375,
22.294,3.675,
22.295,3.675,
22.296,3.68125,
22.297,3.709375,
22.298,3.715625,
22.299,3.709375,
22.3,3.703125,
22.301,3.68125,
22.302,3.684375,
22.303,3.68125,
22.304,3.678125,
22.305,3.665625,
22.306,3.675,
22.307,3.684375,
22.308,3.690625,
22.309,3.68125,
22.31,3.678125,
22.311,3.68125,
22.312,3.68125,
22.313,3.690625,
22.314,3.690625,
22.315,3.709375,
22.316,3.715625,
22.317,3.696875,
22.318,3.684375,
22.319,3.684375,
22.32,3.678125,
22.321,3.678125,
22.322,3.68125,
22.323,3.675,
22.324,3.678125,
22.325,3.6875,
22.326,3.6875,
22.327,3.684375,
22.328,3.675,
22.329,3.675,
22.33,3.703125,
22.331,3.740625,
22.332,3.775,
22.333,3.78125,
22.334,3.771875,
22.335,3.76875,
22.336,3.746875,
22.337,3.696875,
22.338,3.659375,
22.339,3.68125,
22.34,3.7,
22.341,3.6875,
22.342,3.678125,
22.343,3.678125,
22.344,3.671875,
22.345,3.65625,
22.346,3.6625,
22.347,3.68125,
22.348,3.68125,
22.349,3.690625,
22.35,3.6875,
22.351,3.68125,
22.352,3.678125,
22.353,3.69375,
22.354,3.684375,
22.355,3.678125,
22.356,3.678125,
22.357,3.678125,
22.358,3.69375,
22.359,3.7,
22.36,3.69375,
22.361,3.6875,
22.362,3.69375,
22.363,3.7,
22.364,3.7125,
22.365,3.76875,
22.366,3.9875,
22.367,4.41875,
22.368,4.69375,
22.369,4.54375,
22.37,3.8875,
22.371,3.14375,
22.372,2.9125,
22.373,3.30625,
22.374,3.99375,
22.375,4.509375,
22.376,4.69375,
22.377,4.571875,
22.378,4.346875,
22.379,4.153125,
22.38,4.0125,
22.381,3.93125,
22.382,3.871875,
22.383,3.825,
22.384,3.784375,
22.385,3.778125,
22.386,3.79375,
22.387,3.78125,
22.388,3.75625,
22.389,3.75625,
22.39,3.765625,
22.391,3.775,
22.392,3.765625,
22.393,3.765625,
22.394,3.771875,
22.395,3.775,
22.396,3.78125,
22.397,3.790625,
22.398,3.79375,
22.399,3.79375,
22.4,3.790625,
22.401,3.784375,
22.402,3.76875,
22.403,3.7625,
22.404,3.765625,
22.405,3.74375,
22.406,3.73125,
22.407,3.728125,
22.408,3.728125,
22.409,3.734375,
22.41,3.725,
22.411,3.715625,
22.412,3.696875,
22.413,3.703125,
22.414,3.721875,
22.415,3.725,
22.416,3.709375,
22.417,3.690625,
22.418,3.7,
22.419,3.703125,
22.42,3.690625,
22.421,3.6875,
22.422,3.690625,
22.423,3.68125,
22.424,3.678125,
22.425,3.696875,
22.426,3.7,
22.427,3.6875,
22.428,3.678125,
22.429,3.68125,
22.43,3.690625,
22.431,3.690625,
22.432,3.7125,
22.433,3.7125,
22.434,3.690625,
22.435,3.6875,
22.436,3.69375,
22.437,3.6875,
22.438,3.671875,
22.439,3.66875,
22.44,3.678125,
22.441,3.671875,
22.442,3.671875,
22.443,3.671875,
22.444,3.675,
22.445,3.675,
22.446,3.684375,
22.447,3.70625,
22.448,3.721875,
22.449,3.715625,
22.45,3.69375,
22.451,3.69375,
22.452,3.684375,
22.453,3.671875,
22.454,3.671875,
22.455,3.678125,
22.456,3.68125,
22.457,3.690625,
22.458,3.7375,
22.459,3.775,
22.46,3.7875,
22.461,3.775,
22.462,3.759375,
22.463,3.721875,
22.464,3.690625,
22.465,3.696875,
22.466,3.69375,
22.467,3.690625,
22.468,3.684375,
22.469,3.690625,
22.47,3.68125,
22.471,3.665625,
22.472,3.65625,
22.473,3.640625,
22.474,3.65,
22.475,3.6625,
22.476,3.659375,
22.477,3.653125,
22.478,3.659375,
22.479,3.684375,
22.48,3.703125,
22.481,3.684375,
22.482,3.68125,
22.483,3.678125,
22.484,3.678125,
22.485,3.678125,
22.486,3.68125,
22.487,3.6875,
22.488,3.68125,
22.489,3.684375,
22.49,3.684375,
22.491,3.69375,
22.492,3.784375,
22.493,4.096875,
22.494,4.496875,
22.495,4.65,
22.496,4.34375,
22.497,3.646875,
22.498,3.01875,
22.499,2.98125,
22.5,3.521875,
22.501,4.190625,
22.502,4.6125,
22.503,4.659375,
22.504,4.49375,
22.505,4.265625,
22.506,4.08125,
22.507,3.959375,
22.508,3.8875,
22.509,3.8375,
22.51,3.7875,
22.511,3.775,
22.512,3.753125,
22.513,3.75625,
22.514,3.778125,
22.515,3.796875,
22.516,3.790625,
22.517,3.765625,
22.518,3.75625,
22.519,3.753125,
22.52,3.74375,
22.521,3.75,
22.522,3.753125,
22.523,3.746875,
22.524,3.746875,
22.525,3.765625,
22.526,3.7625,
22.527,3.740625,
22.528,3.715625,
22.529,3.721875,
22.53,3.75,
22.531,3.771875,
22.532,3.753125,
22.533,3.728125,
22.534,3.7,
22.535,3.68125,
22.536,3.68125,
22.537,3.678125,
22.538,3.66875,
22.539,3.671875,
22.54,3.678125,
22.541,3.684375,
22.542,3.6625,
22.543,3.65625,
22.544,3.66875,
22.545,3.665625,
22.546,3.671875,
22.547,3.68125,
22.548,3.7,
22.549,3.68125,
22.55,3.66875,
22.551,3.634375,
22.552,3.625,
22.553,3.625,
22.554,3.63125,
22.555,3.628125,
22.556,3.621875,
22.557,3.640625,
22.558,3.653125,
22.559,3.646875,
22.56,3.625,
22.561,3.609375,
22.562,3.6125,
22.563,3.63125,
22.564,3.65,
22.565,3.68125,
22.566,3.678125,
22.567,3.64375,
22.568,3.628125,
22.569,3.621875,
22.57,3.61875,
22.571,3.61875,
22.572,3.625,
22.573,3.640625,
22.574,3.640625,
22.575,3.6375,
22.576,3.6375,
22.577,3.621875,
22.578,3.628125,
22.579,3.653125,
22.58,3.703125,
22.581,3.746875,
22.582,3.759375,
22.583,3.740625,
22.584,3.690625,
22.585,3.646875,
22.586,3.625,
22.587,3.621875,
22.588,3.6125,
22.589,3.61875,
22.59,3.63125,
22.591,3.628125,
22.592,3.61875,
22.593,3.59375,
22.594,3.596875,
22.595,3.584375,
22.596,3.590625,
22.597,3.615625,
22.598,3.634375,
22.599,3.625,
22.6,3.61875,
22.601,3.615625,
22.602,3.609375,
22.603,3.596875,
22.604,3.6125,
22.605,3.628125,
22.606,3.621875,
22.607,3.61875,
22.608,3.634375,
22.609,3.653125,
22.61,3.6375,
22.611,3.615625,
22.612,3.63125,
22.613,3.696875,
22.614,3.940625,
22.615,4.340625,
22.616,4.603125,
22.617,4.434375,
22.618,3.828125,
22.619,3.1375,
22.62,2.859375,
22.621,3.228125,
22.622,3.91875,
22.623,4.46875,
22.624,4.646875,
22.625,4.546875,
22.626,4.3375,
22.627,4.128125,
22.628,3.96875,
22.629,3.8875,
22.63,3.84375,
22.631,3.815625,
22.632,3.790625,
22.633,3.765625,
22.634,3.7375,
22.635,3.746875,
22.636,3.75,
22.637,3.7625,
22.638,3.74375,
22.639,3.71875,
22.64,3.725,
22.641,3.75,
22.642,3.746875,
22.643,3.74375,
22.644,3.74375,
22.645,3.7375,
22.646,3.75,
22.647,3.76875,
22.648,3.775,
22.649,3.765625,
22.65,3.74375,
22.651,3.74375,
22.652,3.740625,
22.653,3.7375,
22.654,3.725,
22.655,3.7125,
22.656,3.69375,
22.657,3.6875,
22.658,3.684375,
22.659,3.684375,
22.66,3.675,
22.661,3.675,
22.662,3.678125,
22.663,3.684375,
22.664,3.69375,
22.665,3.696875,
22.666,3.68125,
22.667,3.659375,
22.668,3.646875,
22.669,3.665625,
22.67,3.678125,
22.671,3.65625,
22.672,3.65,
22.673,3.653125,
22.674,3.6625,
22.675,3.65625,
22.676,3.653125,
22.677,3.65,
22.678,3.653125,
22.679,3.6625,
22.68,3.665625,
22.681,3.684375,
22.682,3.675,
22.683,3.665625,
22.684,3.65,
22.685,3.653125,
22.686,3.659375,
22.687,3.665625,
22.688,3.66875,
22.689,3.665625,
22.69,3.653125,
22.691,3.653125,
22.692,3.6625,
22.693,3.65625,
22.694,3.653125,
22.695,3.646875,
22.696,3.653125,
22.697,3.66875,
22.698,3.6875,
22.699,3.68125,
22.7,3.659375,
22.701,3.653125,
22.702,3.665625,
22.703,3.671875,
22.704,3.690625,
22.705,3.725,
22.706,3.746875,
22.707,3.75625,
22.708,3.74375,
22.709,3.725,
22.71,3.684375,
22.711,3.6625,
22.712,3.671875,
22.713,3.684375,
22.714,3.684375,
22.715,3.684375,
22.716,3.678125,
22.717,3.64375,
22.718,3.63125,
22.719,3.640625,
22.72,3.653125,
22.721,3.65,
22.722,3.6375,
22.723,3.640625,
22.724,3.646875,
22.725,3.65625,
22.726,3.665625,
22.727,3.6625,
22.728,3.65625,
22.729,3.675,
22.73,3.6875,
22.731,3.690625,
22.732,3.68125,
22.733,3.678125,
22.734,3.678125,
22.735,3.678125,
22.736,3.678125,
22.737,3.678125,
22.738,3.7,
22.739,3.825,
22.74,4.1875,
22.741,4.571875,
22.742,4.6375,
22.743,4.190625,
22.744,3.434375,
22.745,2.915625,
22.746,3.0375,
22.747,3.678125,
22.748,4.33125,
22.749,4.6625,
22.75,4.6375,
22.751,4.4375,
22.752,4.221875,
22.753,4.059375,
22.754,3.93125,
22.755,3.853125,
22.756,3.809375,
22.757,3.79375,
22.758,3.778125,
22.759,3.775,
22.76,3.746875,
22.761,3.73125,
22.762,3.74375,
22.763,3.7625,
22.764,3.765625,
22.765,3.76875,
22.766,3.76875,
22.767,3.7625,
22.768,3.75,
22.769,3.753125,
22.77,3.765625,
22.771,3.759375,
22.772,3.753125,
22.773,3.746875,
22.774,3.740625,
22.775,3.734375,
22.776,3.73125,
22.777,3.728125,
22.778,3.7125,
22.779,3.709375,
22.78,3.725,
22.781,3.73125,
22.782,3.728125,
22.783,3.703125,
22.784,3.68125,
22.785,3.696875,
22.786,3.70625,
22.787,3.703125,
22.788,3.69375,
22.789,3.659375,
22.79,3.6625,
22.791,3.678125,
22.792,3.684375,
22.793,3.659375,
22.794,3.653125,
22.795,3.659375,
22.796,3.665625,
22.797,3.6875,
22.798,3.6875,
22.799,3.671875,
22.8,3.653125,
22.801,3.634375,
22.802,3.665625,
22.803,3.675,
22.804,3.675,
22.805,3.671875,
22.806,3.646875,
22.807,3.628125,
22.808,3.65,
22.809,3.671875,
22.81,3.665625,
22.811,3.64375,
22.812,3.65,
22.813,3.671875,
22.814,3.684375,
22.815,3.68125,
22.816,3.678125,
22.817,3.65,
22.818,3.653125,
22.819,3.6625,
22.82,3.675,
22.821,3.66875,
22.822,3.65625,
22.823,3.659375,
22.824,3.665625,
22.825,3.65,
22.826,3.65625,
22.827,3.665625,
22.828,3.65625,
22.829,3.65,
22.83,3.66875,
22.831,3.684375,
22.832,3.703125,
22.833,3.721875,
22.834,3.734375,
22.835,3.740625,
22.836,3.75625,
22.837,3.740625,
22.838,3.709375,
22.839,3.659375,
22.84,3.646875,
22.841,3.66875,
22.842,3.69375,
22.843,3.678125,
22.844,3.659375,
22.845,3.653125,
22.846,3.653125,
22.847,3.653125,
22.848,3.671875,
22.849,3.665625,
22.85,3.646875,
22.851,3.646875,
22.852,3.665625,
22.853,3.675,
22.854,3.659375,
22.855,3.659375,
22.856,3.659375,
22.857,3.653125,
22.858,3.65625,
22.859,3.66875,
22.86,3.66875,
22.861,3.6625,
22.862,3.665625,
22.863,3.675,
22.864,3.68125,
22.865,3.6875,
22.866,3.684375,
22.867,3.684375,
22.868,3.809375,
22.869,4.1875,
22.87,4.5875,
22.871,4.665625,
22.872,4.228125,
22.873,3.475,
22.874,2.940625,
22.875,3.0375,
22.876,3.640625,
22.877,4.278125,
22.878,4.621875,
22.879,4.63125,
22.88,4.4625,
22.881,4.25625,
22.882,4.075,
22.883,3.946875,
22.884,3.853125,
22.885,3.8125,
22.886,3.790625,
22.887,3.778125,
22.888,3.771875,
22.889,3.753125,
22.89,3.734375,
22.891,3.734375,
22.892,3.74375,
22.893,3.753125,
22.894,3.740625,
22.895,3.740625,
22.896,3.75,
22.897,3.76875,
22.898,3.778125,
22.899,3.771875,
22.9,3.75,
22.901,3.734375,
22.902,3.753125,
22.903,3.75625,
22.904,3.740625,
22.905,3.73125,
22.906,3.734375,
22.907,3.73125,
22.908,3.71875,
22.909,3.71875,
22.91,3.70625,
22.911,3.69375,
22.912,3.690625,
22.913,3.69375,
22.914,3.696875,
22.915,3.69375,
22.916,3.69375,
22.917,3.684375,
22.918,3.671875,
22.919,3.678125,
22.92,3.690625,
22.921,3.68125,
22.922,3.659375,
22.923,3.653125,
22.924,3.665625,
22.925,3.675,
22.926,3.665625,
22.927,3.65625,
22.928,3.653125,
22.929,3.653125,
22.93,3.675,
22.931,3.678125,
22.932,3.671875,
22.933,3.659375,
22.934,3.65625,
22.935,3.659375,
22.936,3.671875,
22.937,3.65625,
22.938,3.659375,
22.939,3.659375,
22.94,3.665625,
22.941,3.66875,
22.942,3.66875,
22.943,3.665625,
22.944,3.66875,
22.945,3.6625,
22.946,3.665625,
22.947,3.671875,
22.948,3.684375,
22.949,3.7,
22.95,3.671875,
22.951,3.65,
22.952,3.659375,
22.953,3.678125,
22.954,3.675,
22.955,3.66875,
22.956,3.671875,
22.957,3.66875,
22.958,3.665625,
22.959,3.675,
22.96,3.7,
22.961,3.71875,
22.962,3.75625,
22.963,3.771875,
22.964,3.771875,
22.965,3.7375,
22.966,3.70625,
22.967,3.684375,
22.968,3.659375,
22.969,3.678125,
22.97,3.684375,
22.971,3.684375,
22.972,3.6625,
22.973,3.653125,
22.974,3.65,
22.975,3.653125,
22.976,3.65625,
22.977,3.6625,
22.978,3.653125,
22.979,3.64375,
22.98,3.65625,
22.981,3.671875,
22.982,3.678125,
22.983,3.659375,
22.984,3.6625,
22.985,3.6875,
22.986,3.70625,
22.987,3.7,
22.988,3.68125,
22.989,3.659375,
22.99,3.66875,
22.991,3.684375,
22.992,3.6875,
22.993,3.675,
22.994,3.71875,
22.995,3.95,
22.996,4.375,
22.997,4.678125,
22.998,4.565625,
22.999,3.95625,
23,3.190625,
23.001,2.871875,
23.002,3.240625,
23.003,3.95,
23.004,4.5,
23.005,4.6875,
23.006,4.590625,
23.007,4.365625,
23.008,4.159375,
23.009,4.015625,
23.01,3.91875,
23.011,3.8375,
23.012,3.7875,
23.013,3.78125,
23.014,3.775,
23.015,3.765625,
23.016,3.7625,
23.017,3.759375,
23.018,3.759375,
23.019,3.775,
23.02,3.765625,
23.021,3.75,
23.022,3.734375,
23.023,3.734375,
23.024,3.74375,
23.025,3.75625,
23.026,3.75,
23.027,3.75,
23.028,3.75,
23.029,3.740625,
23.03,3.75,
23.031,3.759375,
23.032,3.765625,
23.033,3.75625,
23.034,3.7375,
23.035,3.740625,
23.036,3.725,
23.037,3.709375,
23.038,3.703125,
23.039,3.68125,
23.04,3.68125,
23.041,3.703125,
23.042,3.715625,
23.043,3.690625,
23.044,3.665625,
23.045,3.659375,
23.046,3.65,
23.047,3.659375,
23.048,3.665625,
23.049,3.6875,
23.05,3.690625,
23.051,3.671875,
23.052,3.671875,
23.053,3.6625,
23.054,3.64375,
23.055,3.640625,
23.056,3.6375,
23.057,3.65,
23.058,3.6625,
23.059,3.659375,
23.06,3.65625,
23.061,3.634375,
23.062,3.63125,
23.063,3.634375,
23.064,3.65625,
23.065,3.6625,
23.066,3.66875,
23.067,3.66875,
23.068,3.65625,
23.069,3.6625,
23.07,3.66875,
23.071,3.6625,
23.072,3.64375,
23.073,3.6375,
23.074,3.65,
23.075,3.65,
23.076,3.64375,
23.077,3.65625,
23.078,3.66875,
23.079,3.653125,
23.08,3.659375,
23.081,3.6875,
23.082,3.734375,
23.083,3.765625,
23.084,3.778125,
23.085,3.771875,
23.086,3.740625,
23.087,3.6875,
23.088,3.65625,
23.089,3.640625,
23.09,3.628125,
23.091,3.63125,
23.092,3.65625,
23.093,3.6625,
23.094,3.6375,
23.095,3.621875,
23.096,3.625,
23.097,3.63125,
23.098,3.6375,
23.099,3.65,
23.1,3.64375,
23.101,3.646875,
23.102,3.65625,
23.103,3.65,
23.104,3.640625,
23.105,3.621875,
23.106,3.625,
23.107,3.63125,
23.108,3.653125,
23.109,3.6625,
23.11,3.65625,
23.111,3.65,
23.112,3.634375,
23.113,3.640625,
23.114,3.6625,
23.115,3.7375,
23.116,4.003125,
23.117,4.390625,
23.118,4.6,
23.119,4.359375,
23.12,3.703125,
23.121,3.05,
23.122,2.884375,
23.123,3.35625,
23.124,4.046875,
23.125,4.54375,
23.126,4.659375,
23.127,4.525,
23.128,4.303125,
23.129,4.090625,
23.13,3.953125,
23.131,3.878125,
23.132,3.834375,
23.133,3.78125,
23.134,3.765625,
23.135,3.753125,
23.136,3.7375,
23.137,3.71875,
23.138,3.709375,
23.139,3.715625,
23.14,3.70625,
23.141,3.703125,
23.142,3.70625,
23.143,3.715625,
23.144,3.7125,
23.145,3.71875,
23.146,3.721875,
23.147,3.728125,
23.148,3.740625,
23.149,3.75,
23.15,3.74375,
23.151,3.721875,
23.152,3.728125,
23.153,3.721875,
23.154,3.703125,
23.155,3.68125,
23.156,3.66875,
23.157,3.68125,
23.158,3.690625,
23.159,3.675,
23.16,3.66875,
23.161,3.659375,
23.162,3.65,
23.163,3.653125,
23.164,3.6625,
23.165,3.6625,
23.166,3.65,
23.167,3.653125,
23.168,3.653125,
23.169,3.640625,
23.17,3.6375,
23.171,3.65,
23.172,3.634375,
23.173,3.628125,
23.174,3.63125,
23.175,3.646875,
23.176,3.65,
23.177,3.646875,
23.178,3.640625,
23.179,3.6375,
23.18,3.65,
23.181,3.665625,
23.182,3.678125,
23.183,3.6625,
23.184,3.646875,
23.185,3.65625,
23.186,3.678125,
23.187,3.665625,
23.188,3.646875,
23.189,3.646875,
23.19,3.653125,
23.191,3.65625,
23.192,3.659375,
23.193,3.665625,
23.194,3.6625,
23.195,3.665625,
23.196,3.665625,
23.197,3.6625,
23.198,3.665625,
23.199,3.684375,
23.2,3.690625,
23.201,3.68125,
23.202,3.7,
23.203,3.728125,
23.204,3.75625,
23.205,3.74375,
23.206,3.7375,
23.207,3.721875,
23.208,3.696875,
23.209,3.68125,
23.21,3.678125,
23.211,3.675,
23.212,3.66875,
23.213,3.671875,
23.214,3.68125,
23.215,3.678125,
23.216,3.6625,
23.217,3.65625,
23.218,3.65,
23.219,3.659375,
23.22,3.659375,
23.221,3.659375,
23.222,3.65625,
23.223,3.6625,
23.224,3.671875,
23.225,3.675,
23.226,3.675,
23.227,3.675,
23.228,3.684375,
23.229,3.678125,
23.23,3.68125,
23.231,3.6875,
23.232,3.7125,
23.233,3.703125,
23.234,3.684375,
23.235,3.690625,
23.236,3.703125,
23.237,3.759375,
23.238,3.990625,
23.239,4.40625,
23.24,4.665625,
23.241,4.478125,
23.242,3.828125,
23.243,3.128125,
23.244,2.903125,
23.245,3.3375,
23.246,4.028125,
23.247,4.546875,
23.248,4.696875,
23.249,4.578125,
23.25,4.365625,
23.251,4.14375,
23.252,3.990625,
23.253,3.89375,
23.254,3.846875,
23.255,3.809375,
23.256,3.784375,
23.257,3.771875,
23.258,3.7625,
23.259,3.75625,
23.26,3.7625,
23.261,3.765625,
23.262,3.74375,
23.263,3.7375,
23.264,3.753125,
23.265,3.765625,
23.266,3.771875,
23.267,3.7625,
23.268,3.7625,
23.269,3.771875,
23.27,3.759375,
23.271,3.75625,
23.272,3.74375,
23.273,3.740625,
23.274,3.746875,
23.275,3.746875,
23.276,3.75,
23.277,3.7375,
23.278,3.734375,
23.279,3.73125,
23.28,3.721875,
23.281,3.71875,
23.282,3.725,
23.283,3.721875,
23.284,3.7,
23.285,3.690625,
23.286,3.696875,
23.287,3.690625,
23.288,3.678125,
23.289,3.675,
23.29,3.671875,
23.291,3.678125,
23.292,3.684375,
23.293,3.69375,
23.294,3.690625,
23.295,3.678125,
23.296,3.684375,
23.297,3.690625,
23.298,3.69375,
23.299,3.690625,
23.3,3.69375,
23.301,3.68125,
23.302,3.68125,
23.303,3.678125,
23.304,3.68125,
23.305,3.6625,
23.306,3.6625,
23.307,3.66875,
23.308,3.675,
23.309,3.671875,
23.31,3.684375,
23.311,3.6875,
23.312,3.675,
23.313,3.665625,
23.314,3.68125,
23.315,3.70625,
23.316,3.70625,
23.317,3.696875,
23.318,3.6875,
23.319,3.684375,
23.32,3.684375,
23.321,3.684375,
23.322,3.671875,
23.323,3.6625,
23.324,3.665625,
23.325,3.678125,
23.326,3.68125,
23.327,3.678125,
23.328,3.68125,
23.329,3.684375,
23.33,3.71875,
23.331,3.74375,
23.332,3.775,
23.333,3.784375,
23.334,3.7625,
23.335,3.75,
23.336,3.71875,
23.337,3.68125,
23.338,3.66875,
23.339,3.68125,
23.34,3.6875,
23.341,3.6875,
23.342,3.6875,
23.343,3.69375,
23.344,3.671875,
23.345,3.65625,
23.346,3.659375,
23.347,3.66875,
23.348,3.690625,
23.349,3.69375,
23.35,3.69375,
23.351,3.68125,
23.352,3.678125,
23.353,3.684375,
23.354,3.6875,
23.355,3.665625,
23.356,3.65625,
23.357,3.678125,
23.358,3.6875,
23.359,3.69375,
23.36,3.696875,
23.361,3.709375,
23.362,3.70625,
23.363,3.70625,
23.364,3.70625,
23.365,3.734375,
23.366,3.890625,
23.367,4.275,
23.368,4.63125,
23.369,4.6625,
23.37,4.159375,
23.371,3.396875,
23.372,2.915625,
23.373,3.084375,
23.374,3.740625,
23.375,4.365625,
23.376,4.678125,
23.377,4.634375,
23.378,4.4375,
23.379,4.225,
23.38,4.05625,
23.381,3.95625,
23.382,3.896875,
23.383,3.840625,
23.384,3.790625,
23.385,3.790625,
23.386,3.7875,
23.387,3.771875,
23.388,3.753125,
23.389,3.75625,
23.39,3.775,
23.391,3.78125,
23.392,3.76875,
23.393,3.775,
23.394,3.78125,
23.395,3.778125,
23.396,3.778125,
23.397,3.7875,
23.398,3.7875,
23.399,3.784375,
23.4,3.78125,
23.401,3.76875,
23.402,3.75625,
23.403,3.75625,
23.404,3.759375,
23.405,3.740625,
23.406,3.734375,
23.407,3.74375,
23.408,3.75,
23.409,3.740625,
23.41,3.721875,
23.411,3.715625,
23.412,3.703125,
23.413,3.703125,
23.414,3.709375,
23.415,3.709375,
23.416,3.6875,
23.417,3.68125,
23.418,3.690625,
23.419,3.6875,
23.42,3.684375,
23.421,3.671875,
23.422,3.678125,
23.423,3.68125,
23.424,3.68125,
23.425,3.684375,
23.426,3.696875,
23.427,3.690625,
23.428,3.678125,
23.429,3.678125,
23.43,3.678125,
23.431,3.68125,
23.432,3.69375,
23.433,3.690625,
23.434,3.671875,
23.435,3.671875,
23.436,3.6875,
23.437,3.690625,
23.438,3.6875,
23.439,3.678125,
23.44,3.678125,
23.441,3.678125,
23.442,3.6875,
23.443,3.696875,
23.444,3.696875,
23.445,3.690625,
23.446,3.696875,
23.447,3.69375,
23.448,3.6875,
23.449,3.684375,
23.45,3.69375,
23.451,3.68125,
23.452,3.684375,
23.453,3.684375,
23.454,3.6875,
23.455,3.678125,
23.456,3.671875,
23.457,3.684375,
23.458,3.7125,
23.459,3.74375,
23.46,3.7625,
23.461,3.771875,
23.462,3.7625,
23.463,3.74375,
23.464,3.721875,
23.465,3.703125,
23.466,3.690625,
23.467,3.696875,
23.468,3.703125,
23.469,3.7,
23.47,3.6875,
23.471,3.678125,
23.472,3.671875,
23.473,3.671875,
23.474,3.665625,
23.475,3.665625,
23.476,3.684375,
23.477,3.68125,
23.478,3.684375,
23.479,3.68125,
23.48,3.684375,
23.481,3.690625,
23.482,3.7125,
23.483,3.715625,
23.484,3.69375,
23.485,3.69375,
23.486,3.696875,
23.487,3.7125,
23.488,3.69375,
23.489,3.68125,
23.49,3.684375,
23.491,3.69375,
23.492,3.703125,
23.493,3.821875,
23.494,4.146875,
23.495,4.540625,
23.496,4.690625,
23.497,4.36875,
23.498,3.634375,
23.499,3.009375,
23.5,3.00625,
23.501,3.571875,
23.502,4.25,
23.503,4.628125,
23.504,4.665625,
23.505,4.4875,
23.506,4.275,
23.507,4.09375,
23.508,3.975,
23.509,3.890625,
23.51,3.83125,
23.511,3.80625,
23.512,3.784375,
23.513,3.7625,
23.514,3.775,
23.515,3.815625,
23.516,3.80625,
23.517,3.775,
23.518,3.76875,
23.519,3.778125,
23.52,3.778125,
23.521,3.76875,
23.522,3.765625,
23.523,3.7625,
23.524,3.778125,
23.525,3.790625,
23.526,3.7875,
23.527,3.76875,
23.528,3.7625,
23.529,3.7625,
23.53,3.759375,
23.531,3.7625,
23.532,3.775,
23.533,3.771875,
23.534,3.753125,
23.535,3.728125,
23.536,3.715625,
23.537,3.703125,
23.538,3.69375,
23.539,3.703125,
23.54,3.7,
