2.324520375745152689e-01
3.242825341090227464e-01
4.622773434507360113e-01
4.951854447311966889e-01
6.667350361530564040e-01
5.467174438630671984e-01
7.504687116601405084e-01
8.136926769949113236e-01
8.330452478808513250e-01
9.214514656814201121e-01
9.688005237005272718e-01
1.038809706792334087e+00
9.285844079554591568e-01
9.331348307738961401e-01
9.443454814406866404e-01
1.059359723347334636e+00
1.116867853633193297e+00
1.121973026388633832e+00
1.267358166466036939e+00
1.286282216284655444e+00
1.267464561019434388e+00
1.341872364357225234e+00
1.324430798550493504e+00
1.366389435007460573e+00
1.365061902888483170e+00
1.397547582421437173e+00
1.275061808354126525e+00
1.366364014627873491e+00
1.273108615092092055e+00
1.115640784734434066e+00
1.037579117880294444e+00
1.029297006907190282e+00
9.862031289455454042e-01
9.341434372516114193e-01
7.398564802501040871e-01
7.875583716747716068e-01
7.995154552553509486e-01
7.068775315962774197e-01
5.992247624210729207e-01
6.114322641134961600e-01
5.207024325654234786e-01
4.588948449441891397e-01
4.791853037868809007e-01
4.203658691583179174e-01
3.445547238173504723e-01
2.099122733582337030e-01
1.715789658574649879e-01
7.430616407460821637e-02
3.615993067048849097e-02
-3.120385998692989937e-02
-2.001260641676105845e-01
-3.168545607703895928e-01
-4.946375207094229065e-01
-4.970809286958213224e-01
-5.833945975664976968e-01
-6.748874678147669393e-01
-7.674347611915459666e-01
-8.633696741526997176e-01
-8.751980309348645903e-01
-8.892840429054407192e-01
-9.342217513206717561e-01
-9.404199369091926775e-01
-9.423455799148513501e-01
-9.877332107510731207e-01
-1.029836077515415838e+00
-1.013643295846997638e+00
-1.055387171644105226e+00
-1.092470683933534081e+00
-1.176346704072600335e+00
-1.292222523241409071e+00
-1.245457839109672671e+00
-1.325681268214766728e+00
-1.364807227296751746e+00
-1.236837994069566182e+00
-1.362976113071305617e+00
-1.291275852789718348e+00
-1.355165732565284165e+00
-1.314775029015039065e+00
-1.233134716329221670e+00
-1.127412905196075510e+00
-1.051352314231631446e+00
-1.031752325285372418e+00
-9.939864461519446470e-01
-8.018556901823432614e-01
-8.787421364240952659e-01
-7.573319613791784644e-01
-5.705490036789879760e-01
-7.592743500787817457e-01
-6.758981119576614738e-01
-5.687096781730824890e-01
-5.025816389596603484e-01
-5.154231046337252042e-01
-4.104763406623616606e-01
-3.196247693916365318e-01
-2.384358737745658208e-01
-2.324527430839749553e-01
-1.641555379328372699e-01
-1.052007333244790455e-01
-1.042922939084212075e-02
1.392109429135734433e-01
2.213400996707265977e-01
3.695328623563523540e-01
4.544391886514722589e-01
5.252366779394656016e-01
7.299378723353663334e-01
7.095251996209349654e-01
7.213862473215166826e-01
8.900734620333496938e-01
9.147171860279603717e-01
8.551025121774810112e-01
9.172985890575989787e-01
9.970687649887739479e-01
9.573899418936985262e-01
1.011593936795074145e+00
1.103146888383071511e+00
1.049335352467740456e+00
1.096151972399814989e+00
1.165709113634174843e+00
1.171144785031475122e+00
1.161644223626416395e+00
1.208812759577095219e+00
1.368591756174410090e+00
1.318611524139534419e+00
1.439543197613199377e+00
1.324738337009765399e+00
1.408445778673624416e+00
1.395824826574160626e+00
1.329659019335936998e+00
1.184956163076726243e+00
1.229301322998787471e+00
1.150160733108444244e+00
1.027628500815424006e+00
1.027667916106243418e+00
9.481277622842145814e-01
8.979512483724926275e-01
8.636003623308683430e-01
7.039363074700566436e-01
6.836271478800663992e-01
6.639795921569785486e-01
6.493213277665753624e-01
4.484137079472699239e-01
5.082983187104050948e-01
4.749829857700719193e-01
3.685789332024051457e-01
3.216879862128168011e-01
3.784557018603833534e-01
1.625878161746514006e-01
1.495330544926822269e-01
-3.457107230651486340e-02
-1.174672439927244849e-01
-1.878765827073913819e-01
-3.347837956348684307e-01
-4.639492659201185365e-01
-4.724630310049905968e-01
-5.676537241616959051e-01
-7.516088096437314459e-01
-7.670294640152635068e-01
-8.598435611553016944e-01
-8.677754043601539902e-01
-8.549389084817409223e-01
-8.961771071172921488e-01
-8.782196854246192563e-01
-9.550722681093446464e-01
-1.054944458408543895e+00
-1.087077546038403675e+00
-1.009320763357452799e+00
-1.052136572941799297e+00
-9.845293284357838903e-01
-1.101913538463658027e+00
-1.293661886174281461e+00
-1.194527718343034284e+00
-1.312337929452012331e+00
-1.289788360764627217e+00
-1.346773603542965603e+00
-1.344743246388117930e+00
-1.356230175115541670e+00
-1.330584104105589249e+00
-1.220938293098568606e+00
-1.175128292580113865e+00
-1.068116448092727877e+00
-1.054397536913149525e+00
-1.064865262626520259e+00
-1.012702201210355257e+00
-8.566296680834364352e-01
-8.251248974123890356e-01
-7.675553490654858368e-01
-7.359991296355180568e-01
-5.981302638784147252e-01
-5.423858231719383971e-01
-6.327155242058059015e-01
-4.486615071729688764e-01
-5.384746975127081559e-01
-4.116902276400259963e-01
-4.229860915707287505e-01
-4.118584538185060540e-01
-2.722364137499000969e-01
-1.389431720424063321e-01
5.969433094054760192e-03
2.897589909788372137e-02
1.099447527491346915e-01
2.651802903944091017e-01
3.425178298545433764e-01
4.999536332678869988e-01
6.383925303984199218e-01
6.753400309167543192e-01
7.149854314815365930e-01
7.634384698334041319e-01
7.805891731420532276e-01
8.631517102225971794e-01
8.978695921832262616e-01
9.469007138145710822e-01
9.163275172406250002e-01
9.684776146826651333e-01
9.901772072083881993e-01
1.070304528160404223e+00
1.040384015387864736e+00
1.143484935364909916e+00
1.180957469521500824e+00
1.317374505867060064e+00
1.252411152196997834e+00
1.362200345562870618e+00
1.397551464897282658e+00
1.316411375796059824e+00
1.423641072231197402e+00
1.365304416739207438e+00
1.430419467803179634e+00
1.422702032127594940e+00
1.232672544906123546e+00
1.257019373223656089e+00
1.216118637330414032e+00
1.180779904450117490e+00
1.066058666996101190e+00
9.569489237369037671e-01
9.543204147498606238e-01
8.965835313826490127e-01
8.583225013020965299e-01
7.505404959933865694e-01
6.361195500052629903e-01
6.461476116549458304e-01
6.061172989751191231e-01
5.576580480335837642e-01
5.263308234110928296e-01
4.261156880297880534e-01
4.775540185337945331e-01
4.091386267487792106e-01
2.901880167305267433e-01
1.856083141071601106e-01
1.174134506129993483e-01
-2.950993506254724619e-02
-1.177367405321855520e-01
-2.505168289519942304e-01
-3.452006696769124861e-01
-3.912817651300240507e-01
-5.321466817916922221e-01
-6.291355154202264988e-01
-6.765786567282716657e-01
-6.888223129255628407e-01
-8.480708846579133597e-01
-8.979571125654621788e-01
-9.086289564664560281e-01
-9.573620070272905735e-01
-9.088058362277597890e-01
-1.038833062572084964e+00
-9.928486172414635602e-01
-1.022575493424734860e+00
-1.023169731213257716e+00
-9.759229006081340252e-01
-1.035799212641458134e+00
-1.171755300425863400e+00
-1.101019752906136073e+00
-1.260881301868860938e+00
-1.334323567927620635e+00
-1.261235931406983646e+00
-1.367135813747559769e+00
-1.370055964786805136e+00
-1.378136013455380837e+00
-1.242437871628663260e+00
-1.264123873224059613e+00
-1.240812459827408842e+00
-1.056247088290919178e+00
-1.076046958630231698e+00
-1.035781574232527147e+00
-9.330872323272260127e-01
-8.774803766764488477e-01
-7.381263440654123320e-01
-6.855733010470466127e-01
-7.306496567165599032e-01
-6.506525429416525341e-01
-5.100482621100792535e-01
-4.660836438490839617e-01
-5.480611771811993993e-01
-4.497713911207156801e-01
-4.270312854060960284e-01
-3.124968911725776177e-01
-3.414643374554782174e-01
-1.662164671164351459e-01
-1.974989233566990798e-01
5.174101528421277268e-02
1.563040906766351157e-01
1.778971588801625259e-01
2.777242235958204963e-01
3.299711890447020735e-01
5.052768592399323744e-01
5.897080389608739814e-01
6.613839702391055564e-01
7.268887542913249344e-01
8.140720411341638707e-01
8.105353652555790100e-01
8.443078845463295456e-01
9.033075143245599126e-01
8.856268865939604940e-01
1.010490406950929065e+00
1.010811438592978062e+00
9.690758277774302876e-01
1.028092802423354879e+00
9.898236105337812063e-01
1.152904200854884875e+00
1.191116216060856159e+00
1.205213766296169942e+00
1.345944157781615802e+00
1.270155571986038678e+00
1.293969647530271327e+00
1.475442877777644934e+00
1.396539693931533765e+00
1.349214690402410044e+00
1.318660947191535815e+00
1.457453998778054816e+00
1.394884811211825060e+00
1.264625609426625275e+00
1.233785074183348707e+00
1.095062661659134129e+00
1.144361432924306587e+00
9.772833535528157034e-01
9.816771680449269954e-01
8.457707483781089497e-01
8.218542891379208015e-01
7.931267396040346807e-01
7.299255050990920424e-01
7.037593474045962250e-01
6.372149319236074527e-01
6.026040866585146150e-01
5.834109378024894266e-01
5.794262720538209122e-01
4.807062640125195352e-01
3.817831398437875889e-01
3.111316564775750693e-01
2.773428410239169306e-01
1.544228584737146748e-01
-3.024045914787133055e-02
-1.136773548400850098e-01
-1.843950707387983778e-01
-3.429748555994834858e-01
-3.893586450927289944e-01
-5.238622479706408486e-01
-5.667453383634080133e-01
-7.005569474022780296e-01
-6.876980597168900200e-01
-7.609567545650922638e-01
-8.705903953220280878e-01
-8.309629328951868565e-01
-8.867102209682180547e-01
-9.030465213047426110e-01
-9.175976450360771031e-01
-9.728680767986441769e-01
-9.422732387464808346e-01
-9.823839994508490880e-01
-9.521913201853722253e-01
-1.120399253538698625e+00
-1.137740179196667256e+00
-1.144390643216400827e+00
-1.211892337451380142e+00
-1.225311654847177634e+00
-1.263359251557377938e+00
-1.368980028117970482e+00
-1.289154227669480068e+00
-1.224946519466375339e+00
-1.277408100812478242e+00
-1.267380069986980828e+00
-1.160934359678628347e+00
-1.097847689468576249e+00
-1.089217047016149076e+00
-9.912994789506978099e-01
-9.440449365066264642e-01
-8.735200095972484036e-01
-7.986737303596254112e-01
-7.862176627559787079e-01
-6.774782246703926480e-01
-6.200797199907814861e-01
-5.699474359353753350e-01
-4.914268042430180450e-01
-4.721973504164895252e-01
-4.887787815097972555e-01
-4.027563749779271562e-01
-3.613841797567797220e-01
-2.172415673157243599e-01
-1.337813597430635437e-01
-9.332174137851725892e-02
-7.015718089402911417e-02
1.095213859539837659e-01
1.149061502607525431e-01
2.072472182299600063e-01
3.773776266954713132e-01
5.085387551619970914e-01
7.323319590173587024e-01
6.275648326737531812e-01
7.962007395796482090e-01
7.957178193579510506e-01
8.388499522672667741e-01
9.545265554370662153e-01
9.710120195794768039e-01
1.018840682626836580e+00
9.993205345847466781e-01
9.346444994103766390e-01
1.008780006681341934e+00
1.050041915773817891e+00
1.119849721480302485e+00
1.086805359690520945e+00
1.212264415038376786e+00
1.185166925997538812e+00
1.173260087913181815e+00
1.309765636569942826e+00
1.340449756565691874e+00
1.449145355162673177e+00
1.317668460740907266e+00
1.324906537067128021e+00
1.429667780667730703e+00
1.306537912720092676e+00
1.287412175355118649e+00
1.380926944183406668e+00
1.206651702218910938e+00
1.180129949591074201e+00
1.119209608905951780e+00
9.314526885108616039e-01
1.050052422298871413e+00
9.199600467187575292e-01
8.868579797011207910e-01
7.586673344253341833e-01
6.820798078619519922e-01
6.595861414509515130e-01
5.346612544644214760e-01
5.590587762815654171e-01
6.427601389281986100e-01
4.679631310055850091e-01
4.619730895530112513e-01
4.762652986138447009e-01
2.912742160559506632e-01
2.746234685702452216e-01
1.086670478579310900e-01
8.120779233736222236e-02
-2.708514099282292864e-02
-2.236059926169775836e-01
-2.490210083101125071e-01
-3.307308989826304724e-01
-5.336119444808545831e-01
-5.825989455855683508e-01
-7.192517486516212255e-01
-7.259378127654303459e-01
-7.591594684737477117e-01
-7.752465508614226897e-01
-9.024438136151545775e-01
-8.624258768992968394e-01
-9.593468304106324007e-01
-9.409088980675175407e-01
-9.279268946425551778e-01
-9.685330511872536352e-01
-9.338380835915488509e-01
-1.054962016825642612e+00
-1.036267446422452387e+00
-1.039474865674909321e+00
-1.231432078889120652e+00
-1.263085434090400971e+00
-1.269291592609192776e+00
-1.216483524719966569e+00
-1.247790136001490024e+00
-1.283873439271551398e+00
-1.272227246177857873e+00
-1.294249507868095117e+00
-1.198390120417601956e+00
-1.151261235042130515e+00
-1.112440561524968841e+00
-1.028405629051830639e+00
-9.078092202629748364e-01
-7.992568224752657491e-01
-8.232495941202181422e-01
-6.515894551560575954e-01
-7.581808235907578908e-01
-5.947837717077674169e-01
-5.446867868023126391e-01
-5.174162945936949809e-01
-5.480496018444428463e-01
-4.308934132675456552e-01
-5.312907626255741755e-01
-3.872129861442660248e-01
-3.885714999841529682e-01
-3.124902538098192628e-01
-1.600405749541584655e-01
-6.892513724583033963e-02
-3.247316020628294997e-02
2.637639037111746271e-02
2.352674808358872216e-01
3.423357114786562683e-01
4.573169571316264559e-01
4.468604105953793981e-01
6.689821493087867443e-01
7.282195795044362763e-01
8.268452538458535006e-01
7.621552927666570554e-01
9.187211456575582469e-01
9.193647008074763427e-01
9.679951371444012187e-01
9.782543347054795113e-01
9.801005096697166241e-01
1.090599145638348810e+00
1.038540192389216132e+00
9.523141457535736487e-01
1.169876763148341103e+00
1.100245137944661389e+00
1.205620055592437678e+00
1.233874071553892060e+00
1.269739854903317866e+00
1.289369537133375099e+00
1.347511846905468769e+00
1.354462358109342901e+00
1.507428030651072559e+00
1.414629233763411431e+00
1.416274466318219405e+00
1.339277664535695411e+00
1.293914840631824381e+00
1.350181144070198513e+00
1.228029566232827552e+00
1.182298421825677570e+00
1.106702299377840815e+00
1.090600315525304342e+00
9.751067403995512528e-01
8.287466523801717555e-01
8.443830178577483858e-01
8.331133487870063803e-01
7.953094419167661133e-01
7.254590211315770087e-01
6.123075595733546983e-01
5.516966259388308425e-01
5.446522092692381856e-01
5.451130407802073918e-01
3.682193901914615486e-01
3.726022821398476959e-01
3.645882816312236430e-01
3.536085811975534510e-01
2.047669826033057805e-01
-5.827206158549869119e-04
-1.165105414085430280e-01
-1.694941842944636679e-01
-2.783623711079730723e-01
-3.350173037903937945e-01
-5.002674612396142972e-01
-6.063387923275401770e-01
-6.718888044369157875e-01
-6.979470024973944975e-01
-7.875650981924379179e-01
-8.607800131018198408e-01
-8.253668760031038776e-01
-9.940387565121884261e-01
-9.188445915203468095e-01
-8.612515909087079535e-01
-9.814851062786139613e-01
-8.557755540947087347e-01
-9.750254196527271544e-01
-1.079727081794713772e+00
-9.910862297543614474e-01
-1.109644740997633106e+00
-1.151283592322796423e+00
-1.231473179842836663e+00
-1.252017871647915559e+00
-1.332646154657155968e+00
-1.289719350110576590e+00
-1.277044097587759941e+00
-1.288847983811952425e+00
-1.376914007397488593e+00
-1.194323148065731255e+00
-1.215635948488543949e+00
-1.052866735042867319e+00
-1.108903236947104576e+00
-9.574744504755953178e-01
-8.756739594531673943e-01
-8.577623530168827504e-01
-8.274044835942662157e-01
-7.003045793279716325e-01
-6.316957545301428167e-01
-6.207535726348394345e-01
-5.677242586700441684e-01
-4.887471581299437373e-01
-4.093179342863002002e-01
-4.662560182827073518e-01
-4.316652755083099091e-01
-3.559612117415421051e-01
-2.810360526266351688e-01
-1.732081459937125367e-01
-1.401443868017878125e-01
-3.878979621966914537e-02
1.668390034078334749e-01
2.062280781415521125e-01
2.236712499117509134e-01
4.028329070351440722e-01
5.202221622928134837e-01
6.719413253581789647e-01
7.691396962548352478e-01
7.849929461317698420e-01
8.868254306342713278e-01
9.210130181383966441e-01
8.943019633300764992e-01
1.054703409237315981e+00
1.056962353878634131e+00
1.037083721424733707e+00
1.130341726258849988e+00
1.129988112668488975e+00
1.104292828743036248e+00
1.135643565971951929e+00
1.125832540673928905e+00
1.214038458048598113e+00
1.146460383092993141e+00
1.266861986576012900e+00
1.426983598039658574e+00
1.356504416454714201e+00
1.385129893202261986e+00
1.508893501683511662e+00
1.329901075468236549e+00
1.359493828488943512e+00
1.471280056076964993e+00
1.358253175710123495e+00
1.274491852278097248e+00
1.169525142290137598e+00
1.186862390157302771e+00
1.135012799932031413e+00
1.067981818518101811e+00
9.801824779073934346e-01
9.595081937384453141e-01
8.451649769639594245e-01
8.558650724407911303e-01
7.090560713233482470e-01
6.712983569931497696e-01
6.267917647218775867e-01
5.789238894365137389e-01
6.300612698142710189e-01
5.471668123122610528e-01
4.503593708323156419e-01
4.009781261789008289e-01
4.102467829611651795e-01
9.547532366027550177e-02
9.661658295952343933e-02
1.690930171626950362e-02
-4.539152798715657272e-02
-1.856044574630043853e-01
-2.222955721725106970e-01
-3.605009920641872867e-01
-4.541662640470783829e-01
-4.884376089827870415e-01
-5.617047145896069127e-01
-7.089164541904691141e-01
-7.686577260332065897e-01
-7.789088955292147176e-01
-7.544868694684268018e-01
-8.261892579175147411e-01
-8.189630092704209829e-01
-7.800811118581350012e-01
-9.786146765028104211e-01
-9.223869484689811715e-01
-9.723140410715871429e-01
-1.045244865931558298e+00
-1.055213530074722961e+00
-1.057212968762712091e+00
-1.172346830207369850e+00
-1.172490850357812198e+00
-1.217081161378967158e+00
-1.274218639039512047e+00
-1.306063712319343928e+00
-1.212091998847500740e+00
-1.259182500269554250e+00
-1.285877217074299361e+00
-1.251486179695493250e+00
-1.075131398055048981e+00
-1.126781097207481208e+00
-1.059552514466538975e+00
-9.713533602334142314e-01
-8.814138582910855391e-01
-7.904005108147148517e-01
-7.581531077555998532e-01
-7.066644238978363468e-01
-5.829463641818116715e-01
-6.436289044167161633e-01
-5.301894041125517765e-01
-4.630330304352098802e-01
-4.903280754045281076e-01
-3.372790618880213698e-01
-2.729610000319309115e-01
-2.655676816112569893e-01
-2.943347010025392230e-01
-2.124434106795554389e-01
-1.083088646808115091e-01
3.870690762998928169e-02
7.853748708487426344e-02
1.825661731878185090e-01
3.270650263517277945e-01
3.858515177147482378e-01
5.029589808307466381e-01
6.139678354708641983e-01
6.739956532291035973e-01
8.335022552847979327e-01
8.746135775213501606e-01
9.295069675609054505e-01
8.919411722835249856e-01
9.527700569775001682e-01
1.005790819172303507e+00
1.034732738313329348e+00
1.105424457520399084e+00
1.040728120883873897e+00
1.062229075246219567e+00
1.152513957959653501e+00
1.152869202239846791e+00
1.121520778877822977e+00
1.274512089344743915e+00
1.313537240800519923e+00
1.271014580071011313e+00
1.410925917306708799e+00
1.428376090697115242e+00
1.490282690215723127e+00
1.353059158284937613e+00
1.381613151670042505e+00
1.420434184046684978e+00
1.262280136943702225e+00
1.298549069810079004e+00
1.238289813613217438e+00
1.208742374209081483e+00
1.039736610403722228e+00
1.062824948330389319e+00
9.465208038473080787e-01
9.279323866517921182e-01
8.343020765881745682e-01
7.570120578970339631e-01
7.098796560855499260e-01
6.920890724735130339e-01
7.316946786103071254e-01
5.563615633143164096e-01
6.583249443785593735e-01
5.474323054307079772e-01
5.544932896349967777e-01
4.407227070392868984e-01
3.227420593412362315e-01
2.369725409578281039e-01
6.260908127066068529e-02
2.137677519045742824e-02
3.376310789184443217e-02
-1.572894108503650190e-01
-2.273031449392025616e-01
-3.290804710301194480e-01
-5.869851169829294335e-01
-4.949609421519003960e-01
-6.340464184333948205e-01
-6.603097862047861977e-01
-6.672807751219088646e-01
-8.210673970646803488e-01
-8.489234451150898808e-01
-9.157311845168489839e-01
-8.293909814979497641e-01
-8.792200068731207407e-01
-9.475752842539768572e-01
-8.850476154741087065e-01
-9.371674057730237095e-01
-1.015451022080361643e+00
-1.022494603881243913e+00
-1.069798488382986079e+00
-1.148198476102802346e+00
-1.214627791659715905e+00
-1.158476600701815906e+00
-1.215653402153585194e+00
-1.261379019845128457e+00
-1.295827447515290665e+00
-1.191612288752402327e+00
-1.260324679841439810e+00
-1.165648520116164599e+00
-1.157602280789198801e+00
-1.066936037605564103e+00
-1.076127548047669080e+00
-9.967010799553919220e-01
-7.657887784244696849e-01
-8.408806409513497337e-01
-7.959856780499701134e-01
-6.175675757641096997e-01
-5.920700955704807367e-01
-6.260349474445721096e-01
-6.241021115178309042e-01
-5.001103920861840191e-01
-4.180495464524133786e-01
-3.627283488866503425e-01
-3.564841848024904447e-01
-3.889429417073302919e-01
-2.378675640689567328e-01
-1.362358912540014011e-01
-1.108167969355248750e-01
1.563696095075996217e-02
1.520639505060582541e-01
2.946530224045919022e-01
3.034041947402139616e-01
4.097348988089972166e-01
4.277480170495248091e-01
6.894542414686565257e-01
7.029541976686520810e-01
7.882135814057605883e-01
9.425300465540367156e-01
9.046760577882420051e-01
9.810336599167145399e-01
9.720681582098720241e-01
8.979584988792966849e-01
1.083365408606723257e+00
1.058161470559065176e+00
1.049350901799517510e+00
1.070621178383753591e+00
1.280413397397762054e+00
1.189287166466362455e+00
1.227147976600486912e+00
1.170123977678171112e+00
1.368489430114428140e+00
1.448703574426299046e+00
1.367935892429964939e+00
1.442343286221230869e+00
1.460953118140481122e+00
1.393266057946048297e+00
1.392889706650523918e+00
1.469826994614596982e+00
1.319936422091376294e+00
1.266264845962265850e+00
1.288895373473044836e+00
1.131092327174777701e+00
1.108743077735522498e+00
1.021852485460571724e+00
1.044723464062607965e+00
8.972971839760957025e-01
8.443810499162834882e-01
7.696748903166626965e-01
8.021610173015836232e-01
6.557963704115641335e-01
6.653196571449695451e-01
6.194309029294429170e-01
6.760738324077351091e-01
5.916336701391271546e-01
5.359112705152878631e-01
4.648240142876505776e-01
3.085427115297769141e-01
3.182788989470520802e-01
1.858832428130518521e-01
7.374772359911081765e-03
-3.662768821663496543e-02
-1.844079912447921243e-01
-3.191637745760604328e-01
-4.415657706814690719e-01
-5.109366282705981588e-01
-4.805970101744693190e-01
-7.119124953440248982e-01
-7.767059382276549906e-01
-7.311636204909359726e-01
-7.876758965043443306e-01
-7.475183831418538150e-01
-7.461372404691932747e-01
-9.861832325211158379e-01
-8.258056106656580519e-01
-9.601919958507952879e-01
-1.025541491853120268e+00
-1.005165437442869125e+00
-1.004452573010573557e+00
-9.742033123531480543e-01
-1.109042029371798632e+00
-1.078293384632138308e+00
-1.160871900438855242e+00
-1.312397870979796322e+00
-1.211206149582155556e+00
-1.286990063266114870e+00
-1.272220732591035075e+00
-1.301493661406612601e+00
-1.207912813130586294e+00
-1.110071836815529345e+00
-1.125953871082856050e+00
-1.007720159458384668e+00
-1.089760715681655334e+00
-9.720315139229741552e-01
-8.742936050278070637e-01
-9.073387764463951566e-01
-8.612623076708875169e-01
-7.344116109206260123e-01
-6.256859612179687113e-01
-5.932348770870613519e-01
-5.510822084191044912e-01
-5.109047983090772016e-01
-4.385901640667568269e-01
-3.632828332255689796e-01
-3.664122060640180312e-01
-2.483704029630336985e-01
-1.970424375957851582e-01
-1.831930325246501901e-01
-4.995528443372948546e-02
-4.923318628937869978e-02
8.737716760055545817e-02
1.623730699791320342e-01
3.392247207692981048e-01
5.215815007964091921e-01
5.381710515644316795e-01
7.186479144533088892e-01
7.654775621428595578e-01
8.543682193840366201e-01
8.260647853036040544e-01
1.011192816040363596e+00
9.310205277105284560e-01
9.465698256486101414e-01
9.695932366096755572e-01
1.055066351772660171e+00
1.126571483191789680e+00
1.057703049001897266e+00
1.173623841179237015e+00
1.158548900873561216e+00
1.274359962031040405e+00
1.237151371125534416e+00
1.262615669017149500e+00
1.298240300746774656e+00
1.272880421154737762e+00
1.384318527761276840e+00
1.358668252118331754e+00
1.470417113278847276e+00
1.580631417426244134e+00
1.618409182692553516e+00
1.443610145646279319e+00
1.453978864279074967e+00
1.216823352410274950e+00
1.278535376618325170e+00
1.153076107680580442e+00
1.130824844140723151e+00
9.970537063067470562e-01
1.009965712848343466e+00
8.871279127525761865e-01
8.620631741791801028e-01
8.242415028890095474e-01
7.991726905273875969e-01
7.262762404277768313e-01
7.094479518034998433e-01
5.942414891852606518e-01
5.906480048583636622e-01
5.358215423238709141e-01
4.812590041661704010e-01
4.958024108812004727e-01
4.031444232824872298e-01
3.128605621881155319e-01
8.508664630485847369e-02
3.839004978736590412e-02
-1.502541049722055239e-02
-2.015348919693988605e-01
-2.487980603018552506e-01
-4.120444142640394825e-01
-4.174692140931295370e-01
-5.103496203781578977e-01
-6.123026461591558611e-01
-7.046984094319715952e-01
-7.336765428740282813e-01
-8.919509254299834433e-01
-8.548015867450120542e-01
-8.717841273498312393e-01
-8.671342474711570825e-01
-8.679120900260276494e-01
-9.904133224213977904e-01
-8.937920684596302179e-01
-1.070263576682796591e+00
-1.000491754552087942e+00
-9.713952928190544567e-01
-1.066724737582909199e+00
-1.129231665359263559e+00
-1.187995899964480628e+00
-1.184824507837855201e+00
-1.245704671854716894e+00
-1.296227218809895110e+00
-1.187459211649363189e+00
-1.304299059643802439e+00
-1.232535801113279428e+00
-1.209737403628687202e+00
-1.102064679426925542e+00
-1.037793517794838305e+00
-9.808511859707947922e-01
-9.943589786243124395e-01
-9.355830573922393478e-01
-7.225707655369284499e-01
-7.152636781274237521e-01
-6.701432249291621179e-01
-6.063951677626983061e-01
-5.677248498530749199e-01
-5.664666194997062254e-01
-4.468945540150539020e-01
-4.078652571560515416e-01
-4.473041417887329008e-01
-4.022506140720517043e-01
-3.365961678240577126e-01
-1.917647867542751072e-01
-1.787266192204883253e-01
-2.128660742467889389e-01
5.889775372036832463e-02
1.129595352666911828e-01
2.705277645813333742e-01
3.879533896301556317e-01
5.130251545648605305e-01
5.800693566784139721e-01
6.472046671673404861e-01
7.674275844559339532e-01
8.394104513830502601e-01
7.529656902727021039e-01
8.220247008152914425e-01
9.761641056564989150e-01
8.934231545958368770e-01
9.728756504802887894e-01
1.049372892881411445e+00
1.039004165361649745e+00
1.090200174569770475e+00
1.072660255038012433e+00
1.173894859334708940e+00
1.136127261443620862e+00
1.159712442862135928e+00
1.325192564494839242e+00
1.340813755868624391e+00
1.380132823927097796e+00
1.398679394608555837e+00
1.400584837319309939e+00
1.415436286356324347e+00
1.501986870934364227e+00
1.460422638288396247e+00
1.425051657930420435e+00
1.453058829346469905e+00
1.377198846508262298e+00
1.303096520698223237e+00
1.234780292688266501e+00
1.105620580465303426e+00
9.909635937111499482e-01
9.565146429792328320e-01
9.911948898272681108e-01
9.187864272650566599e-01
8.423624457147991240e-01
6.942444388948837419e-01
7.746417691119656945e-01
7.824223287042437747e-01
6.604543362912818072e-01
5.352511832726862817e-01
5.185609821166655697e-01
4.064124512978649073e-01
4.877220438736076802e-01
3.330181335189635328e-01
2.705867426539106391e-01
2.337136488076890783e-02
1.701363723507500758e-01
-1.360194108142586678e-01
-7.581840796385955206e-02
-2.993877284901645952e-01
-3.923203620556379168e-01
-4.722591379567660508e-01
-6.491763812561438529e-01
-5.738740530870646284e-01
-6.788191468271882467e-01
-7.112631544878690315e-01
-7.670090825652812194e-01
-7.878441327249222637e-01
-9.217559139347737407e-01
-9.552656317115451046e-01
-8.629934065314264213e-01
-9.752339653258069729e-01
-9.716734907325224047e-01
-1.016391149500763591e+00
-1.028231152030821161e+00
-1.072610634489038262e+00
-1.150294256914092150e+00
-1.167673094292319469e+00
-1.206791275294302412e+00
-1.127753693534920831e+00
-1.296512741163482696e+00
-1.285673254806137145e+00
-1.304823186345500652e+00
-1.260902672348997777e+00
-1.250240513059760694e+00
-1.136704205147631042e+00
-1.148355858770117477e+00
-9.480849016512272742e-01
-1.060235248287028753e+00
-9.780398437091409880e-01
-9.149902513980352481e-01
-8.243177348051649034e-01
-7.411322085069014243e-01
-7.233163647117258899e-01
-6.327599576274941517e-01
-4.558344850127250547e-01
-4.289988538171013444e-01
-5.732609614090750094e-01
-4.597907968744149310e-01
-4.114883099146466328e-01
-3.876285377733490467e-01
-3.817387926553708621e-01
-2.987208974034800124e-01
-1.084219286923158998e-01
-1.199410306353732580e-01
3.862214728424616383e-02
1.591425715709885724e-01
2.635609934914446284e-01
3.419448540661073621e-01
4.450412817019483991e-01
5.410407545871889212e-01
6.004587888414758545e-01
7.486212144482609077e-01
8.348693600942734827e-01
8.812795317005225337e-01
9.961498571441028682e-01
9.978117995048206845e-01
1.018072823637625524e+00
9.676219668629313375e-01
1.078631315497712295e+00
1.024611451320645017e+00
1.071702615256899582e+00
1.198839180234827495e+00
1.126494414390524224e+00
1.171842026772043743e+00
1.250213298190341993e+00
1.221771707467371293e+00
1.405168928579760834e+00
1.290324885252507325e+00
1.399445804009749939e+00
1.390127174677344257e+00
1.407899493475809338e+00
1.426895243918351763e+00
1.463566565579724976e+00
1.400051051064675978e+00
1.328811598884185541e+00
1.252904903215890986e+00
1.233022906902702776e+00
1.224531041415183985e+00
1.205365739165304761e+00
1.075774403135854707e+00
1.024413072594376084e+00
9.112090356788727918e-01
9.220874086152248683e-01
8.041458364302260797e-01
7.639267918954385506e-01
7.681227412685376343e-01
6.453162737944200256e-01
6.808842103998931083e-01
4.852303027625556875e-01
5.483782917759726372e-01
5.286014657508243397e-01
4.430954891555295427e-01
3.836429734912309986e-01
3.006264886159928928e-01
2.261176926196411530e-01
7.567195232669404747e-02
-9.982464804100295297e-02
-9.635391980995222649e-02
-3.105228621120243448e-01
-4.008676659022507582e-01
-4.757429872282367134e-01
-5.685322185209609192e-01
-6.015973632637851010e-01
-7.909358876755774315e-01
-7.400147795676864648e-01
-8.701283393325673909e-01
-7.685998019320471331e-01
-8.515618816965194737e-01
-8.094989703992679919e-01
-7.756482927072921862e-01
-8.856572509223259448e-01
-8.464725444781044938e-01
-9.016896879134623788e-01
-9.584467520907171689e-01
-9.620889863060178016e-01
-1.086816827409150088e+00
-1.050370912225171649e+00
-1.192339996911144562e+00
-1.291520367105310818e+00
-1.246345371925217993e+00
-1.211489144642622362e+00
-1.273299848656436639e+00
-1.259524610178708537e+00
-1.155739297524139841e+00
-1.219890936658181824e+00
-1.114814812765826391e+00
-1.083682594224254503e+00
-9.959361234490428094e-01
-9.483662458137874784e-01
-8.701003048657436345e-01
-7.924418952719286535e-01
-7.085150553875751989e-01
-6.492832367183939413e-01
-5.960896595931438613e-01
-5.393399123977276055e-01
-4.936581841192320685e-01
-4.409585937490613228e-01
-3.513856188601737207e-01
-3.447314916465876733e-01
-3.557403457560187054e-01
-2.659170167188726341e-01
-2.138943085680863887e-01
-2.033225462448370047e-01
-1.455492854184690932e-01
5.464141399889888007e-02
7.672216956056186754e-02
2.357158608314558479e-01
2.893861928327590705e-01
3.369688756771953564e-01
5.089259798610412666e-01
6.496776489243549779e-01
7.603703978684297482e-01
8.892420221457379981e-01
8.973251375410686848e-01
9.244833212891871987e-01
9.414543536218101805e-01
1.068839599139089991e+00
9.880117301834112631e-01
1.016938771767472938e+00
1.080782873787427434e+00
1.103376878273536033e+00
1.089489132265289095e+00
1.190199377744832976e+00
1.231290914329611130e+00
1.248206199513903325e+00
1.240926833731890611e+00
1.301343663048232457e+00
1.334269427981612521e+00
1.463741197444918818e+00
1.393882912852626887e+00
1.437172761397161658e+00
1.416630634347550100e+00
1.519149839482188957e+00
1.503510713477187677e+00
1.342543665280409915e+00
1.299778505164719711e+00
1.303022424413230018e+00
1.205814812431477367e+00
1.157826182427907247e+00
1.036788460711298931e+00
9.625464014322201445e-01
9.467689449293911208e-01
9.184610628745784044e-01
8.978144245750255825e-01
7.873439274258448028e-01
6.598508112665095737e-01
6.664468928152973426e-01
7.294287060857328475e-01
5.319416784821637822e-01
6.268566333392566747e-01
4.506060055076255844e-01
4.042714756171467139e-01
4.095175035810444952e-01
2.944318551134147421e-01
1.538028954306797924e-01
1.116004916923851731e-01
9.466980293850527084e-03
-1.580225856828350317e-01
-3.130277336102063046e-01
-3.056747645528594681e-01
-4.876900680405139021e-01
-5.814222405074152000e-01
-6.518512057580299057e-01
-7.458386382855755059e-01
-8.056964089772979953e-01
-6.822329820636113817e-01
-7.179960946738872529e-01
-8.060456409020232416e-01
-8.510733600433523227e-01
-8.529538047220965868e-01
-9.009180772483237343e-01
-9.078256917216755983e-01
-8.927477464847276556e-01
-1.018045514603267199e+00
-1.078126068202452714e+00
-1.097522693947977634e+00
-1.088117045419932483e+00
-1.199005630310249870e+00
-1.249507534103324158e+00
-1.243623838294013684e+00
-1.157850086546138524e+00
-1.369822999687083209e+00
-1.258774392445982659e+00
-1.201181735104197346e+00
-1.227205462342638942e+00
-1.038232685015864742e+00
-1.070030602586287571e+00
-1.049903883788641412e+00
-9.495341101707991394e-01
-9.323443332695244834e-01
-8.299240352823031852e-01
-8.094035337381864093e-01
-6.648576528450669265e-01
-5.437362748461849193e-01
-6.134559992286895413e-01
-5.342803373288388391e-01
-3.755984851469403307e-01
-3.840718127771598489e-01
-4.270907521836265763e-01
-3.702673853639996682e-01
-3.176009904242111381e-01
-2.388608643474355586e-01
-1.845468283711285407e-01
-8.149147715408988635e-02
-1.809621765314826936e-02
7.553128516106882850e-02
2.584848967178061674e-01
4.708950494192144509e-01
4.594335679535377359e-01
6.134302381159341122e-01
6.148618071377697225e-01
7.506863840899860030e-01
7.905885496633225928e-01
9.159287479776760943e-01
8.984347671900489996e-01
9.070308032982723478e-01
9.123725081828699679e-01
1.072565745834393347e+00
1.136016243738311671e+00
1.117764321470098299e+00
1.180878900164398226e+00
1.150372407443141176e+00
1.166915312907587543e+00
1.184728736363882318e+00
1.180471860923743455e+00
1.246512900130611889e+00
1.276952601665350073e+00
1.369759409135252293e+00
1.418145847591066433e+00
1.501641020167722385e+00
1.432397272841183566e+00
1.429209568015062715e+00
1.393480966834551360e+00
1.432431271581501075e+00
1.370541103063918964e+00
1.368034028117258716e+00
1.173865885921196561e+00
1.177015596239424644e+00
1.196792693025139354e+00
1.127842927859902034e+00
1.073838438193402522e+00
9.004812062242704140e-01
9.016957837642263218e-01
8.289944467851961818e-01
7.421403915924280614e-01
7.041646475281367890e-01
7.068205429316162247e-01
6.582617566946966647e-01
6.590188282029645350e-01
5.954032271497379236e-01
4.109125759684046919e-01
4.557956194973118991e-01
3.494714566675172773e-01
2.096787682181988355e-01
8.401891232383040808e-02
7.755545114816149443e-02
2.442396393906405561e-02
-1.126309332285162224e-01
-3.514804584927464504e-01
-4.800255295143044387e-01
-4.633141268247794042e-01
-6.011689188733601030e-01
-6.099162796143641208e-01
-6.558731543446838508e-01
-7.015413632498285201e-01
-6.983844037574996610e-01
-8.114532173160552420e-01
-8.498675821581119783e-01
-8.355010475786763813e-01
-9.300774730203348328e-01
-9.562229924937623027e-01
-9.786519544895566636e-01
-9.690747979205901474e-01
-9.973137156310207807e-01
-1.041432972353751651e+00
-1.099489914456281525e+00
-1.086227788638021607e+00
-1.180934951638089370e+00
-1.253831537562520193e+00
-1.220217107320357153e+00
-1.328009110826374073e+00
-1.290423580588640595e+00
-1.286093343796516297e+00
-1.183020016558782084e+00
-1.198591405498110385e+00
-1.178608977233472466e+00
-1.009547668554817035e+00
-8.983357447906026305e-01
-8.919938784422649647e-01
-8.380777272846086090e-01
-8.228226327529232220e-01
-7.624187562676034702e-01
-7.580477810060621824e-01
-5.697692228224933153e-01
-6.352160661029886413e-01
-5.390188939147990688e-01
-4.383972307448917305e-01
-4.699568287753666529e-01
-3.521826946061804575e-01
-3.541764658360093132e-01
-2.862826819121760957e-01
-3.240000670412643835e-01
-1.342235361875202260e-01
-1.227592197114888983e-01
-6.453663382252321223e-02
1.367534347436337172e-01
2.713249085718831832e-01
3.502603723196524022e-01
4.937786721141342317e-01
5.181801582861330635e-01
6.919001749569168025e-01
8.043939927509830001e-01
7.895999925484599169e-01
9.023407115397941158e-01
9.472423748729352777e-01
1.006082040973180547e+00
1.045214393399768404e+00
1.064121394110135510e+00
1.075999638470553688e+00
1.039097222248689834e+00
1.118772367277428126e+00
1.027237310731469178e+00
1.162784952251747717e+00
1.222511232995286745e+00
1.136334224186159148e+00
1.219824020667870323e+00
1.241597849176153900e+00
1.442698605946945767e+00
1.389454092550667097e+00
1.452405158587209311e+00
1.534438865055866685e+00
1.522495901442220578e+00
1.400054293318479415e+00
1.469176202703169176e+00
1.390736822739666589e+00
1.339485510583330985e+00
1.272712340229054329e+00
1.238834024847885074e+00
1.228906162404416857e+00
1.086796843328684758e+00
9.656810052972799596e-01
9.342305673777296926e-01
8.415032085620908209e-01
9.148723691490493470e-01
7.031011262753933400e-01
6.475957193162312775e-01
6.490835052118523185e-01
7.281384388958016540e-01
5.582838904529395796e-01
6.073882288031162702e-01
4.660987374188468313e-01
3.864869495977536484e-01
3.048950918532046250e-01
2.802050104259518615e-01
2.278847365044927575e-01
1.656180078050958904e-02
-5.775936813820117810e-02
-1.170969074380558694e-01
-2.737848623603204579e-01
-2.328146471591985844e-01
-4.324895046354849670e-01
-5.349580765725965303e-01
-5.670851362252610217e-01
-6.720200271442647866e-01
-6.923192884341212716e-01
-7.571823053803464765e-01
-9.327679796130966539e-01
-8.683609406647366802e-01
-9.142640127454060295e-01
-8.696145588828565476e-01
-9.715902425572325862e-01
-9.107430388405471922e-01
-9.516554721625630764e-01
-1.068791093446019191e+00
-1.022058314697264381e+00
-1.058279822408794812e+00
-1.138771118816972239e+00
-1.110653800713930828e+00
-1.248783188742145223e+00
-1.301215991004624151e+00
-1.272315122765515838e+00
-1.277613936083533241e+00
-1.234424258830378207e+00
-1.167564594360877450e+00
-1.172894959630899070e+00
-1.174318669500623802e+00
-1.017676141453828675e+00
-9.886969599996923153e-01
-9.549895360418372281e-01
-8.902655961382683891e-01
-8.440145690320741689e-01
-7.300390491447035224e-01
-6.662474837336342937e-01
-6.322189819592790583e-01
-5.618743565241239857e-01
-6.148047846951327777e-01
-5.459874505112467524e-01
-4.621358742364754524e-01
-4.156749552488432364e-01
-3.851992527848617787e-01
-3.432745623249237044e-01
-2.378150950732952906e-01
-1.117985421640950300e-01
-1.217947137121655476e-01
5.446191589280029860e-02
1.543858674327463210e-01
2.541113176409597885e-01
4.243341911929738863e-01
4.733642772055657866e-01
5.661611135713827681e-01
7.080508385535632110e-01
7.249860366812399537e-01
7.847582070484397931e-01
9.172052363358060845e-01
8.577971017349401706e-01
9.578399175626683970e-01
9.803100629624308393e-01
9.927304029704828725e-01
1.126202376723457910e+00
1.081983270237490302e+00
1.126512704067336390e+00
1.234778892701744013e+00
1.264212590500281674e+00
1.298250130048402173e+00
1.179518663605678030e+00
1.263969871664355038e+00
1.281650724939285668e+00
1.360506827699983656e+00
1.423575191298855902e+00
1.436018939989729848e+00
1.468097671325732323e+00
1.435914624850523458e+00
1.427403003740861820e+00
1.452472144239899343e+00
1.360811001191025715e+00
1.368561643733365196e+00
1.286838180981101365e+00
1.189917664883979986e+00
1.045024388438250851e+00
1.023906311276244985e+00
1.030524587302630746e+00
9.284511719309210820e-01
9.097230331532308867e-01
7.191594527339841836e-01
7.388979554024306395e-01
7.068138513238080289e-01
6.730821125885353418e-01
5.750469886568561062e-01
5.951642538538779448e-01
5.330670736063954918e-01
5.527652754310333760e-01
3.269406583137773326e-01
2.865060623829789321e-01
3.020616647900327134e-01
1.744130596704190350e-01
6.006548616188082251e-02
-4.418890950092103226e-02
-1.337760642618339157e-01
-3.473373642564798192e-01
-3.718501538830520370e-01
-5.696884805722581824e-01
-5.082838969507743609e-01
-6.503985352551425736e-01
-6.761678099589073510e-01
-7.752068459385854649e-01
-7.167878880617211124e-01
-6.978511693777177394e-01
-8.015404442145254160e-01
-8.332945365155345341e-01
-9.006828873381585998e-01
-9.578713309256970954e-01
-9.490077071339219072e-01
-9.423033040559216644e-01
-9.683680299345275300e-01
-1.023289175409451746e+00
-1.207845329732849970e+00
-1.118564212165452210e+00
-1.178584930980855816e+00
-1.174776737402801308e+00
-1.259153279220345034e+00
-1.353272553731743155e+00
-1.244030555731951093e+00
-1.219021155730004358e+00
-1.211258195072082877e+00
-1.276289937521985607e+00
-1.182635170107923406e+00
-1.151426547173775461e+00
-1.030162997679308079e+00
-9.798304194542946099e-01
-8.860767652202879985e-01
-7.337437652142124733e-01
-7.726924179877465715e-01
-7.749960501663047951e-01
-6.682453014222538012e-01
-5.882180933942857681e-01
-6.256903121742590779e-01
-5.918706604847736585e-01
-4.030739992528751259e-01
-4.219538685917083587e-01
-4.311957491906297513e-01
-2.927988583583189253e-01
-3.071769792599057802e-01
-1.504967490063272850e-01
-1.750768915379838919e-01
3.617784526469472461e-02
6.705799902618868324e-02
2.466172196120091920e-01
4.371548613961298013e-01
4.911665245187697426e-01
5.667247748306779576e-01
6.670015171275068822e-01
7.132008830035515556e-01
8.013493210106672482e-01
8.255901726557581810e-01
9.028509317936125322e-01
9.101823439640327473e-01
1.016473112078035035e+00
9.973698791092279192e-01
1.021714829822609527e+00
1.029105951517895967e+00
1.101267181304356413e+00
1.144109448991802669e+00
1.111876443625730015e+00
1.169857818543982075e+00
1.185386028995299323e+00
1.241402815233753953e+00
1.284874477558977324e+00
1.317711106490750073e+00
1.390513925881068591e+00
1.358523621197911035e+00
1.588074382527203898e+00
1.340863579858583954e+00
1.369050664116129301e+00
1.465755944752304307e+00
1.314828533209870365e+00
1.288702269227984587e+00
1.326973565472582717e+00
1.251001110519001758e+00
1.111447594455988508e+00
1.028517239061714106e+00
9.789829342151429303e-01
9.796883859820295637e-01
8.210659786602494403e-01
8.869816777955921161e-01
6.607060213892654854e-01
6.571587618963145028e-01
7.294615193456910340e-01
6.734627989105900214e-01
5.764600691620710426e-01
5.348579931703287826e-01
4.637071321213859232e-01
3.796399959353924936e-01
3.744050870221249383e-01
3.022632334890891226e-01
1.055256312701576271e-01
4.035507571625604473e-02
1.656786635203015556e-03
-1.937520977250438980e-01
-3.060845562984824131e-01
-3.934547706953344659e-01
-4.546701781502062722e-01
-6.282541100930519873e-01
-6.277972006082562784e-01
-6.807250722042275104e-01
-7.495389906638111333e-01
-7.618322383629362315e-01
-8.800173581529938671e-01
-9.041650620350014655e-01
-8.290713552979082079e-01
-8.763030010920801471e-01
-8.983752463934095989e-01
-9.175518212146421826e-01
-9.430417479272540371e-01
-1.016051648805306851e+00
-1.087159799439288310e+00
-1.061121532866582839e+00
-1.124324449870757192e+00
-1.086121107553893461e+00
-1.327430146331951777e+00
-1.225949685404296163e+00
-1.320848438617733489e+00
-1.303306167479849176e+00
-1.271028721181613808e+00
-1.327185425237279004e+00
-1.296614878288385064e+00
-1.133744893483588312e+00
-1.105498930117033929e+00
-1.051331112276385538e+00
-1.013228923929639702e+00
-8.978959092357245986e-01
-8.443641836268973577e-01
-8.049493127184699226e-01
-7.164300586588613351e-01
-5.255257399340207414e-01
-6.010295373555590848e-01
-6.370876439175060524e-01
-5.378617861677543743e-01
-4.667349537968327189e-01
-4.046351967972465213e-01
-3.678039676488105147e-01
-3.311200054943337356e-01
-2.747178553952818181e-01
-2.136469328070636775e-01
-1.287495275681937446e-01
-2.566587603934818856e-02
1.211534401711820974e-01
2.902724051998261667e-01
3.650134751708636882e-01
4.142800714496213677e-01
5.728885380867887456e-01
5.723896285275765772e-01
6.611148024444440940e-01
7.379311372722846540e-01
9.272817991728292686e-01
9.581434548377854021e-01
9.632696192289386117e-01
9.722191372519192187e-01
9.965237693668804742e-01
1.034686715495661158e+00
9.963398606087847664e-01
1.051591361726428753e+00
1.106903374133116014e+00
1.117827479962495207e+00
1.154223412997202214e+00
1.300139377519075268e+00
1.215485742461021257e+00
1.304700099082910070e+00
1.394224525224383449e+00
1.393953317660846958e+00
1.327005782886203855e+00
1.410156356434032476e+00
1.409334808798242689e+00
1.479074083198300693e+00
1.399678441287962816e+00
1.394231517781314045e+00
1.396637444263406636e+00
1.239515599907095256e+00
1.270321018678324698e+00
1.203735955722874174e+00
9.810410203156189057e-01
9.196267740375325683e-01
9.948468047550127480e-01
8.305643482227859087e-01
8.557841867678149805e-01
7.221228914032935542e-01
6.702154614144527622e-01
6.146068215135367385e-01
7.183800002554483477e-01
6.061940107763912344e-01
5.338615914453309630e-01
5.581459821967326151e-01
4.527352355865583711e-01
3.465424032497080309e-01
2.062438601119824522e-01
1.217461228048258293e-01
7.987318480848758229e-02
-7.592998641689266415e-02
-2.357216309393603826e-01
-3.179663616943928517e-01
-3.541880873763142423e-01
-4.644870309917098483e-01
-5.873986858700117608e-01
-6.546488321144530165e-01
-7.946719047622150534e-01
-6.299452163917634850e-01
-8.634753202950981033e-01
-7.374165582227893978e-01
-9.069167441338351621e-01
-8.300313467177028448e-01
-8.446547225091277644e-01
-9.922869479463333198e-01
-1.032495191635566467e+00
-9.766063354020471099e-01
-9.634133840645878744e-01
-1.048866638173284960e+00
-1.118252308602995626e+00
-1.104769144586055241e+00
-1.211325847183635895e+00
-1.120656458681336787e+00
-1.327795294069245458e+00
-1.293857214364103836e+00
-1.246834202314403672e+00
-1.301416454552460022e+00
-1.299361533114492762e+00
-1.233921978321793400e+00
-1.120319357932906934e+00
-1.121200796215781947e+00
-1.103309085715818760e+00
-9.302851518180050849e-01
-8.909951236740271119e-01
-7.931370499742129709e-01
-7.843465630513224429e-01
-6.745891839425701697e-01
-6.497813852505631704e-01
-6.501932740120417442e-01
-5.741034381449741097e-01
-5.098386770748432051e-01
-3.874944447068537356e-01
-4.707952522189410849e-01
-3.287757072732279684e-01
-3.729903051995221430e-01
-1.969668632631385030e-01
-1.673435614565201290e-01
-1.019056177143192465e-01
1.101049348444806675e-01
9.724892442931290515e-02
1.988273302922797248e-01
4.087729591808213492e-01
4.757281041335271743e-01
6.217123610533469291e-01
6.697436111904158107e-01
6.172807640244366567e-01
7.278765400338538250e-01
8.456380400571772427e-01
8.806601851296482764e-01
1.006807366853545993e+00
9.501513317261793823e-01
1.056109044880088721e+00
9.798242496622505682e-01
1.025190502692367112e+00
1.133997335931357542e+00
1.175242530588008982e+00
1.069914431585599512e+00
1.094503389921057668e+00
1.201371076098780577e+00
1.305312897976936615e+00
1.253467118661695023e+00
1.377666484250039458e+00
1.388320530816778531e+00
1.370568375525525573e+00
1.496839706958816185e+00
1.474823711341633148e+00
1.455598897937736336e+00
1.452793748861071155e+00
1.338760898284901746e+00
1.301810420420623560e+00
1.319583981451814214e+00
1.203519975685489740e+00
1.179329330504887752e+00
1.057398954337405828e+00
9.056451737305880600e-01
9.505284531771978074e-01
7.849016522049286904e-01
8.268248488591490863e-01
7.132083160270685784e-01
7.111345309766636813e-01
7.186409902391982518e-01
5.584724782952281696e-01
5.185020933483195371e-01
4.931424593451785299e-01
4.445553781193066767e-01
4.059096159080016197e-01
3.636078860923589451e-01
1.301715988986606176e-01
1.595791564074078850e-01
1.089794353173798858e-01
-4.161958153656401815e-02
-2.228143967399091041e-01
-2.495452312264505312e-01
-3.051360696897977842e-01
-5.138984291045939345e-01
-6.970576049187053869e-01
-7.262660779222337437e-01
-7.651472211080281305e-01
-7.597469649424033467e-01
-7.545150375731880521e-01
-8.450202074215391601e-01
-9.008864639980489475e-01
-9.755599189890653555e-01
-8.533910213962766500e-01
-9.607545549494446169e-01
-9.916804730185886374e-01
-1.009866232552109722e+00
-1.051162124913850304e+00
-1.142274076910324787e+00
-1.139467292779228869e+00
-1.133128981939190982e+00
-1.131195420868567503e+00
-1.240776299789869919e+00
-1.239595324831942902e+00
-1.294717093769293559e+00
-1.332600561830119990e+00
-1.322655599209764832e+00
-1.234859835763469471e+00
-1.290420847415501893e+00
-1.137847957044967773e+00
-1.016003513753760856e+00
-9.956177325984194582e-01
-8.708754518455307236e-01
-8.535306494479105721e-01
-7.930862272384791023e-01
-7.780382867953279380e-01
-6.538078938360982750e-01
-6.053142832082003544e-01
-6.770988123922890844e-01
-6.312043864575282992e-01
-5.771751971489126332e-01
-4.050548152002323432e-01
-4.475484582268640099e-01
-2.999446146272367608e-01
-3.840573595677742036e-01
-2.687667878835558466e-01
-1.710764674750679948e-01
-1.591788726056669878e-01
2.055229495459228242e-02
1.414410308107473258e-01
2.091816891315164684e-01
2.766469231758595382e-01
3.814527624153970509e-01
5.114727191095619352e-01
5.261197824751246976e-01
7.661004465938990871e-01
8.431925876029694455e-01
8.247109047175099628e-01
9.000498171669936154e-01
1.032263306747569054e+00
9.896039422245871409e-01
1.037265811909993340e+00
1.090699911668762567e+00
1.048038896834263989e+00
1.090873998164437975e+00
1.068971914897549613e+00
1.079167496920534708e+00
1.090967014642586719e+00
1.162184667557601747e+00
1.306291979950747750e+00
1.347828124741139000e+00
1.361068181489037299e+00
1.385450079248022215e+00
1.286640167801477608e+00
1.507611357405423513e+00
1.434234729095885008e+00
1.498701544389016371e+00
1.419950221061626605e+00
1.386743830202387784e+00
1.316447409930022960e+00
1.153217216834957037e+00
1.099821710655235707e+00
1.147728384796149692e+00
1.027448631724514838e+00
9.371011686119797846e-01
8.124887730328663737e-01
8.294810772547948075e-01
7.452895858873692658e-01
7.348708812389977973e-01
6.566834839705605331e-01
6.065838719626432951e-01
6.281364093604246968e-01
5.497326703513479851e-01
4.706516137546604139e-01
4.817449913160741781e-01
4.076292722669421775e-01
3.456596002629013231e-01
2.592874326734412316e-01
1.744820533095986781e-01
-7.512051403965394614e-04
-8.317324928816870189e-02
-2.011724940226146396e-01
-2.924948767987365361e-01
-4.669126720325817992e-01
-5.453824247422212057e-01
-5.624368314395802315e-01
-6.712326051935396665e-01
-8.244780971608204334e-01
-7.126661114396187768e-01
-8.568909845013250592e-01
-8.976815893543167446e-01
-8.783901508407192527e-01
-9.200048904906582559e-01
-9.764282509699782064e-01
-9.465048602530994337e-01
-9.476107911149558305e-01
-9.361437296859955737e-01
-1.040950717635446443e+00
-1.174256721433331929e+00
-1.134876727843875388e+00
-1.152279934012369500e+00
-1.229184693297688424e+00
-1.320465205672351816e+00
-1.331411674182534144e+00
-1.346539380909161698e+00
-1.344612439398791937e+00
-1.277345328884613718e+00
-1.250457825235557374e+00
-1.195797345271035539e+00
-1.172102088581218338e+00
-1.145945529559501574e+00
-1.025114625030277171e+00
-1.015541692895697068e+00
-8.636100597666288570e-01
-8.300727599781535515e-01
-7.167711749959744250e-01
-7.298304705077789389e-01
-6.388172459224492616e-01
-5.853341457414308335e-01
-5.530500984903249373e-01
-5.834325541009901528e-01
-3.453918648170706818e-01
-5.066690094285508650e-01
-4.776192595886281644e-01
-2.591191117993199011e-01
-2.837840898202003137e-01
-1.452873101031606495e-01
-1.227884372905102550e-01
-1.532499972097388016e-02
8.754055325284974820e-02
2.756309296324951363e-01
3.619312797864152609e-01
3.913907884602794707e-01
5.141409921930779614e-01
6.407127791972334618e-01
6.894043256814776921e-01
7.525153683998452303e-01
8.240418409216996309e-01
9.004609343557676837e-01
9.384330482512425187e-01
9.911469622619767383e-01
9.695804519214153983e-01
9.904874406539397880e-01
9.905945714069449570e-01
1.012103087113157107e+00
1.056586017577844538e+00
1.146247905378637633e+00
1.201488806622422745e+00
1.216937157126329883e+00
1.274027330812074643e+00
1.373924249616668591e+00
1.255764617904277847e+00
1.299301236654482050e+00
1.380154427787578353e+00
1.500790918089683901e+00
1.403239939103875900e+00
1.383414206765951615e+00
1.381558682462140197e+00
1.325035600214569564e+00
1.357632165302372407e+00
1.205113618595585523e+00
1.175508345235784180e+00
1.162339577913344080e+00
1.003367627129463591e+00
9.241194269443859799e-01
8.295931581644795383e-01
7.894903448556209735e-01
7.971349337303318405e-01
7.031854490397229096e-01
5.778563347037413145e-01
6.558232749872023870e-01
6.518699006376783567e-01
5.400522243008207823e-01
4.453075999688833608e-01
5.285793795253187488e-01
3.742541087855352222e-01
2.543694602653625569e-01
2.832433535572385641e-01
1.540079787962711499e-02
-7.148944566536155620e-03
-1.151313777670836952e-01
-1.501319570627311084e-01
-2.744971763672465204e-01
-3.874539714954733927e-01
-5.022556326742562138e-01
-6.055268027503757367e-01
-7.902843862965572841e-01
-7.584699069337675903e-01
-7.781699956799934537e-01
-8.299922764312959167e-01
-8.436370460870906696e-01
-8.548051242193358545e-01
-8.987008945461391063e-01
-9.662923225488826429e-01
-9.487943210005140848e-01
-9.983688030307683592e-01
-9.647918717450224557e-01
-1.116878274549214956e+00
-1.144721111516379564e+00
-1.224596490076891753e+00
-1.169381715310644276e+00
-1.257217647076706246e+00
-1.211406410028625480e+00
-1.248015599797786201e+00
-1.268735679304568986e+00
-1.358574525635660057e+00
-1.243910889456367297e+00
-1.329235416824426252e+00
-1.208940844957145933e+00
-1.212156869023839567e+00
-1.111862361654914144e+00
-1.098182156429996281e+00
-1.001903561690811850e+00
-9.946486719949169109e-01
-8.111769537136878094e-01
-8.098134789452963167e-01
-6.180135845322664023e-01
-6.547585415338804671e-01
-5.334434886478079951e-01
-6.314083268192888232e-01
-4.961570568311063911e-01
-4.992642754217044843e-01
-5.075499087619558258e-01
-5.202884480661624789e-01
-3.105517647784244994e-01
-2.664260863353957731e-01
-2.330747326387760388e-01
-1.353490866854720476e-01
1.709155831873610670e-02
1.272070861420270538e-01
2.633479012853878753e-01
3.591274234828911172e-01
4.003011635021316295e-01
5.158209311928081409e-01
6.777723883537339900e-01
7.150697788960649337e-01
7.529493058334219002e-01
7.862313668707852088e-01
8.783113345018622731e-01
9.569972462417584147e-01
9.417634246875241644e-01
9.342941824764334768e-01
9.961412524696976467e-01
1.015311843108803291e+00
1.086417075915719233e+00
1.073799948264622106e+00
1.166383434652635831e+00
1.108446128953413101e+00
1.205261916719440940e+00
1.181671468430959049e+00
1.273336106227010101e+00
1.296561150386793315e+00
1.346528829125382298e+00
1.359942052647503674e+00
1.435269663451785416e+00
1.376082334283087016e+00
1.425245475397190820e+00
1.443977406432209731e+00
1.322780089236276435e+00
1.293786972428917492e+00
1.323760199440149110e+00
1.159416542098355318e+00
1.033138809717453421e+00
9.761321272006179273e-01
9.085592524049468377e-01
7.690866743739699363e-01
7.696594703681743921e-01
8.225439684875760493e-01
7.572040597119858996e-01
6.890362968075710581e-01
6.847312527760580636e-01
6.690400390344048986e-01
5.310287490492276996e-01
4.404843493260695575e-01
4.797596644670149568e-01
4.139365275071741901e-01
3.151449539571332115e-01
2.898274342676269155e-01
7.542037347260206748e-02
3.113143437820928023e-03
-1.902742749551404322e-01
-2.944820628369143045e-01
-4.351370412324911396e-01
-3.540470636835086338e-01
-4.983338135030196958e-01
-6.217237721918731364e-01
-6.502988384051362480e-01
-6.807389031869590656e-01
-7.489930651535028350e-01
-8.202692139033778140e-01
-9.166204037892752288e-01
-8.918995710237089813e-01
-9.941886450299290967e-01
-9.323729285983656245e-01
-9.522651233072194632e-01
-1.078171012783913696e+00
-1.098190591586022835e+00
-1.054978851367547543e+00
-1.101054146872459283e+00
-1.128096824508765472e+00
-1.151908136086292167e+00
-1.254279190242701958e+00
-1.221724253023984019e+00
-1.257117010376967325e+00
-1.275811251587863904e+00
-1.334432726436477701e+00
-1.306949738156128804e+00
-1.273045221520747727e+00
-1.231639540283411938e+00
-1.217578968779803539e+00
-1.092582123711595354e+00
-1.004974762271380273e+00
-1.028807207098145104e+00
-8.442387624845888450e-01
-8.883819857574131174e-01
-8.323137541050747990e-01
-7.056387022210670601e-01
-7.121319657603355502e-01
-6.046129905031724094e-01
-6.093472712154608395e-01
-5.868396507779500837e-01
-5.445159349084114364e-01
-4.349047690111836895e-01
-5.150954063605278632e-01
-4.374792533892907787e-01
-2.590883136101562179e-01
-1.788922205164342749e-01
-1.512233037165184590e-01
9.046184458521425165e-02
-2.262431971080808291e-03
1.381290012424781777e-01
3.575854109643934464e-01
3.891389355415532103e-01
5.071802873042803306e-01
6.200022955232188382e-01
6.301318186177845559e-01
8.400377809276513563e-01
8.927672411644594908e-01
9.007099020434051750e-01
9.072407732151600568e-01
9.399645011290622687e-01
9.629894253328415976e-01
9.625821243620642509e-01
1.135012399051965826e+00
1.012787567790183862e+00
1.087727164173436734e+00
1.210173504898638619e+00
1.148632998036937414e+00
1.116034656249972556e+00
1.230644137038480412e+00
1.288701088302490083e+00
1.315630439795423268e+00
1.302378466721070716e+00
1.232168556081265187e+00
1.433985860627750908e+00
1.384684031558334416e+00
1.315823693133391981e+00
1.424483165211109181e+00
1.371473511675787238e+00
1.273964894191644159e+00
1.179570883648452195e+00
1.135055096737654479e+00
1.187548391743697307e+00
1.023754511823912861e+00
8.676139649469400972e-01
9.315114510088132738e-01
7.715215546168566751e-01
7.897850927109240082e-01
6.616655986799730993e-01
6.072702599263968271e-01
6.277101787702907831e-01
6.096451454995169827e-01
6.227924277659230290e-01
5.744343362735052638e-01
4.280850885042788434e-01
3.764243483425514514e-01
1.783018099700198755e-01
1.266517236615842812e-01
1.111666238403589274e-01
1.044360480603653968e-01
-1.290326254522706495e-01
-1.650034402500689112e-01
-3.175495816604776422e-01
-4.528717900799902885e-01
-4.964412579242978296e-01
-6.013494561652483750e-01
-6.307894472684211218e-01
-7.410384749898915047e-01
-9.564005398772641442e-01
-8.097687806253660581e-01
-9.445024969765637435e-01
-8.876015288828683625e-01
-1.053020042949658119e+00
-9.519066585873894315e-01
-1.025503294744038785e+00
-9.717376329102141996e-01
-1.078904222863780848e+00
-1.123705277171588524e+00
-1.056213572461419004e+00
-1.054094180804967973e+00
-1.244826244485057964e+00
-1.314186752600285724e+00
-1.146910001848967076e+00
-1.309357437612160835e+00
-1.272227520819712687e+00
-1.233248263171080827e+00
-1.298992456541362861e+00
-1.319322997697853550e+00
-1.190712876083845906e+00
-1.148811316973616048e+00
-1.225748415441616501e+00
-9.906956148073122748e-01
-9.329300806956999370e-01
-9.976704206621204163e-01
-7.943605038637363558e-01
-7.849942114981143249e-01
-8.536668329008204603e-01
-7.268047926400875713e-01
-7.084372548512729573e-01
-6.636673451601866613e-01
-5.564074964858539696e-01
-3.738606305705871602e-01
-4.271448490903715922e-01
-3.892704682657794901e-01
-3.059832380351139025e-01
-2.893216384108668882e-01
-1.964867416633470087e-01
-1.810203964440391389e-01
-5.658459527911901404e-02
8.657940004366322662e-02
1.429635479247544361e-01
1.863290428456138570e-01
3.441710578260256392e-01
4.409530197581356115e-01
6.126631505591146887e-01
6.956607869284554546e-01
7.615460243571610111e-01
7.244831974610876912e-01
9.019639137027896103e-01
9.040371572058473193e-01
8.495639986057672566e-01
8.399637625291969112e-01
9.474329697706872500e-01
9.945352682960343360e-01
1.026705686694692865e+00
1.132813901751714702e+00
9.704090502303137633e-01
1.090651789624804024e+00
1.205931899432304721e+00
1.284612237423245817e+00
1.206574994192976646e+00
1.257974211509444107e+00
1.403199673295671079e+00
1.448840924866083180e+00
1.365484416970328629e+00
1.453807319560866285e+00
1.333721669792310216e+00
1.265243496941985013e+00
1.312404131439454558e+00
1.238434926253099588e+00
1.180194706469373633e+00
1.149306884225154812e+00
1.022527193992405881e+00
9.967976359663291985e-01
8.836408757024480920e-01
8.284881723991480706e-01
7.709358030291567632e-01
7.664548521736409548e-01
6.733244100745381377e-01
7.001701944863737426e-01
5.366997878421700952e-01
5.578717809534595728e-01
5.607054784215235177e-01
5.319456955749740645e-01
4.419913335715139335e-01
3.789284780111519257e-01
2.447286519933779547e-01
1.440240986829914860e-01
1.138149719174630370e-01
9.840048742999062126e-03
-1.467739458613242787e-01
-2.049655303023499575e-01
-4.520239716970793076e-01
-4.197562119130325287e-01
-5.258039905962387239e-01
-6.570096880790172733e-01
-7.240446468505541411e-01
-8.545867032704114186e-01
-7.608749904495663019e-01
-8.860897096617169622e-01
-8.374324593462108002e-01
-1.001937852109636262e+00
-9.361097383450979192e-01
-9.543112075142363704e-01
-9.997834103327468691e-01
-9.919373314594657209e-01
-1.093127885233734053e+00
-1.052226733335501541e+00
-1.127178442904681166e+00
-1.139119413556061389e+00
-1.236103846585808963e+00
-1.216456928483725441e+00
-1.341613629941424302e+00
-1.243598561730186569e+00
-1.344074341251070059e+00
-1.271503726789625865e+00
-1.299142171643464350e+00
-1.315750687145334163e+00
-1.196186857834966588e+00
-1.277016430714654538e+00
-1.082506906527167967e+00
-1.191695958860571336e+00
-1.003982998129964166e+00
-1.013326320945237669e+00
-8.250606547676170299e-01
-7.865250784191656352e-01
-7.004493656303559801e-01
-6.991174524097002463e-01
-6.296423383417707464e-01
-6.461492727823334725e-01
-5.317882183383205730e-01
-5.622397378935654055e-01
-5.528809924168699430e-01
-4.156282194319992906e-01
-3.355906999201729857e-01
-3.811297634525467326e-01
-1.369032672294602515e-01
-1.651845961127299534e-01
-1.693855726639423298e-02
1.029593165964147183e-01
7.298184605392203650e-02
2.702298748463741740e-01
4.354861026164882354e-01
5.567556170082036404e-01
6.600074315652830759e-01
7.180654559068456733e-01
6.390757204549767367e-01
9.113994705755915637e-01
8.457345692892493938e-01
8.676683485258377404e-01
8.594549016385936158e-01
1.048215898971132098e+00
8.720581547879501239e-01
8.562899895539413109e-01
1.086237876076421749e+00
1.078374595428943428e+00
1.164492360613233357e+00
1.037157771322100741e+00
1.019528263014122915e+00
1.131320416406586427e+00
1.271128913885241740e+00
1.308448716942230305e+00
1.370535745492125423e+00
1.401602686607786863e+00
1.284424193288653537e+00
1.375081135795063192e+00
1.288663481905035990e+00
1.284319701822815851e+00
1.286726756439077413e+00
1.245759084848901299e+00
1.108866808670002646e+00
1.107641862500016394e+00
1.003076607529006736e+00
8.582616298751657435e-01
8.588741060818626538e-01
8.545363973039460381e-01
7.745848162696613581e-01
6.902766122877770361e-01
6.787869436643366727e-01
6.124709671578946191e-01
6.607555883241966743e-01
5.711032717577050333e-01
4.410329348993125564e-01
4.134531288733516163e-01
3.858973325401582333e-01
3.830136091897329287e-01
2.926923269392434079e-01
1.950029734114163416e-01
1.808709993195661836e-02
-2.216374242852550691e-03
-2.049050219280068863e-01
-2.788112503176639612e-01
-2.527970740143591355e-01
-5.260754575291830548e-01
-6.216645080141637303e-01
-5.987589805773037011e-01
-7.590578701338470680e-01
-7.791041139164478491e-01
-8.227046199803400572e-01
-9.006644713464752039e-01
-9.147509240175406564e-01
-9.433709775862297864e-01
-9.453853734829349431e-01
-9.340280274540551098e-01
-9.907034743460210180e-01
-9.700347724555814510e-01
-1.030381975623304358e+00
-1.089159444901963480e+00
-1.097104764700311819e+00
-1.128705466306167082e+00
-1.262700874126294837e+00
-1.195408627987056382e+00
-1.340931247243759117e+00
-1.331686730041034439e+00
-1.393353556214430133e+00
-1.354894701273309021e+00
-1.234956167786833703e+00
-1.358227463239530142e+00
-1.233996713130153244e+00
-1.260971294657466490e+00
-1.220258249303731057e+00
-1.079932424130921165e+00
-9.475060823656800135e-01
-9.528299141872000888e-01
-8.781510647108859979e-01
-8.575172256137829629e-01
-7.580911116491642066e-01
-7.454283403955069831e-01
-7.288184712586097680e-01
-5.973150526597312826e-01
-5.558543127529540495e-01
-5.007381616412954761e-01
-4.703260023426347192e-01
-4.718283777447040972e-01
-3.253568867776859830e-01
-2.590118508392202923e-01
-1.890703637780108415e-01
-1.000579330397907973e-01
-7.977382596687626615e-02
9.260331638665111886e-02
2.599374875701315757e-01
2.653554493779501922e-01
3.816042524136524228e-01
5.243496215606642252e-01
5.906806764977859947e-01
6.212015632440714974e-01
7.009057134511195164e-01
7.860685116016294938e-01
7.621725776111982764e-01
7.579291744603782188e-01
9.013441326531873576e-01
9.771505420996872138e-01
9.640267706689288341e-01
9.266548222426982395e-01
9.803108942066474096e-01
9.564113552527440110e-01
1.063950919888753122e+00
9.761725155812652766e-01
1.248903471166082690e+00
1.186322176312912813e+00
1.228466712727437127e+00
1.303421894557366123e+00
1.282877833905606613e+00
1.334421530530295330e+00
1.404535051658538203e+00
1.260391920926461795e+00
1.363165838921238437e+00
1.267536724208109922e+00
1.242668327454174770e+00
1.251186607180292398e+00
1.130344514180338988e+00
1.083199528421923130e+00
1.062326136441571922e+00
9.577572560453332384e-01
9.056548991352573186e-01
7.406368577085256089e-01
7.630462169658800420e-01
7.029078821731550297e-01
6.978990584497460903e-01
4.435385034379787927e-01
5.294886214700338378e-01
5.291022558097266959e-01
5.099306495969924136e-01
4.485443029329593267e-01
4.155591161715289639e-01
2.925175307958211013e-01
2.102638038343049853e-01
2.599319524704112871e-01
7.209517973681606184e-02
-3.968382455768573042e-02
-1.922038272966324068e-01
-2.996750985077800689e-01
-3.278372257809445411e-01
-4.087099319965880051e-01
-6.851982263087819103e-01
-7.321749134301941409e-01
-7.804890777555362202e-01
-7.305098750608537417e-01
-8.845457414956352515e-01
-9.442058058564828382e-01
-8.434153050008017516e-01
-9.470130533622217461e-01
-9.501852988634080788e-01
-1.058323945398798260e+00
-9.760409052042442468e-01
-1.114128203480711399e+00
-1.108510294121510142e+00
-1.095432950159808572e+00
-1.161660571452620472e+00
-1.168921008979880938e+00
-1.300961483908480432e+00
-1.355932796650715089e+00
-1.278206699166619664e+00
-1.323915779072067478e+00
-1.349221062209201794e+00
-1.391390876171527680e+00
-1.398453672564532457e+00
-1.302125944150559267e+00
-1.269733049014065251e+00
-1.246576937317591005e+00
-1.201677661323125035e+00
-1.071363664302383611e+00
-9.963350316498745807e-01
-1.018998636554624859e+00
-9.221727027880343153e-01
-7.172414917347169627e-01
-8.387954577430826175e-01
-7.313335539595793300e-01
-6.891237067931652582e-01
-6.423550800741272271e-01
-5.484986099738161647e-01
-5.100885536394134112e-01
-5.581202368518312085e-01
-4.755887142137437129e-01
-4.092889933783181444e-01
-3.142750088219995463e-01
-2.359618674424469043e-01
-1.162959113212726076e-01
-1.482411806499149276e-01
-2.225155758330272376e-02
1.763682323676199482e-01
2.686386231418906867e-01
4.336634734269343427e-01
4.589029962339815083e-01
5.244497562100444155e-01
6.132420076911180296e-01
7.622560418370842861e-01
7.881459394914267502e-01
7.805345019860316924e-01
9.031745081388368179e-01
8.080625619112881131e-01
8.873968515387624656e-01
9.059926554329673642e-01
9.501366230990931916e-01
9.329449374394438443e-01
9.782856624260444223e-01
1.081575290097957387e+00
9.847217296187468216e-01
1.140998659779203894e+00
1.181272816039927065e+00
1.245934797133971372e+00
1.248007353834563737e+00
1.407882451754089548e+00
1.298338521270006929e+00
1.356897040078792305e+00
1.323582444659153312e+00
1.344383224383481235e+00
1.297230941783648284e+00
1.265325521141918763e+00
1.259933970727027619e+00
1.191892684741644004e+00
1.073582006480975792e+00
1.048613283689767250e+00
1.024862063305062909e+00
9.112581536915060898e-01
8.023938699066103242e-01
7.134775423467754063e-01
7.657209056516768308e-01
6.001985481185937443e-01
6.299874456613571150e-01
4.811858700960007784e-01
5.424282522468499845e-01
4.453871651630350592e-01
4.039132161565729962e-01
3.762760040527367011e-01
3.036990391772373954e-01
2.664935210045430991e-01
1.633261579168228117e-01
7.037323159486399970e-02
1.086183270757742902e-02
-1.794520953783642625e-01
-2.671128503371182905e-01
-4.365326891315378655e-01
-4.796255555128846604e-01
-5.683523105222839655e-01
-6.166560771002144170e-01
-7.281030573310024456e-01
-8.733730629946254709e-01
-8.404345320447582646e-01
-8.910031974750973749e-01
-9.253489365874076888e-01
-9.432793476509711006e-01
-1.013065629370810905e+00
-1.019922608137517450e+00
-9.936072347280704431e-01
-9.610865389663154623e-01
-1.142734255580898806e+00
-1.229513619804380120e+00
-1.144910310467397663e+00
-1.217279579168461412e+00
-1.211088612041388402e+00
-1.275219908798507440e+00
-1.258268336011971522e+00
-1.279713401405581097e+00
-1.391085350837007795e+00
-1.350688297837972396e+00
-1.397515632409607189e+00
-1.308971977090072736e+00
-1.273310527307316420e+00
-1.203712402954983052e+00
-1.261976408960906682e+00
-1.168217516821435931e+00
-1.066721257413309365e+00
-9.246172699331554057e-01
-9.558565786793794539e-01
-8.752851507243641915e-01
-8.047775114248881811e-01
-7.432015043750807015e-01
-7.529710231073498683e-01
-7.195710086253819249e-01
-7.004734162385268803e-01
-5.316699319611221108e-01
-4.577767256521085848e-01
-5.155696717380873206e-01
-4.905991707455925610e-01
-3.505636489185856020e-01
-2.737229631812805875e-01
-1.809218387123363303e-01
-5.752254606379691992e-02
2.947051370788098326e-02
8.434154366822951832e-02
2.156665086070162496e-01
3.323492246078526557e-01
4.005599325493939267e-01
5.171710043738424467e-01
5.387358876533274721e-01
6.680414433663950380e-01
7.741494257440506566e-01
8.340459580741166334e-01
8.972347613887380335e-01
9.560496896147219203e-01
8.568015120295158216e-01
1.041408586093828248e+00
1.013189669063359277e+00
9.352068811078168009e-01
9.277356488114461008e-01
1.048437210474939763e+00
1.028634460323658795e+00
1.175447401943035652e+00
1.172875432909355142e+00
1.204679835870728244e+00
1.226260232154575025e+00
1.355675115972833966e+00
1.385767999898406044e+00
1.319026098597910091e+00
1.302109845921786802e+00
1.317770304077560573e+00
1.302765149965116498e+00
1.229419487332801930e+00
1.141006918503579159e+00
1.147023684432617596e+00
1.084641625139324717e+00
1.001591031695022727e+00
9.680707343365336781e-01
7.829464793304946602e-01
8.488459543535427088e-01
7.478948851834805733e-01
7.248360118410868136e-01
6.298864775321364462e-01
6.066587962557514757e-01
4.217864036969540265e-01
4.569292489784928524e-01
5.095350691137771060e-01
4.277644497159246439e-01
3.997852659534114617e-01
2.535123569281021449e-01
2.062849292293664760e-01
9.740648638804451365e-02
2.797109788275478626e-03
-2.515467053594077490e-02
-1.504652863447381306e-01
-2.609740714979889020e-01
-4.394644807105705375e-01
-4.634088993270983892e-01
-6.895806318593098450e-01
-6.674546385818110883e-01
-7.418537281021175822e-01
-8.698013480834783095e-01
-9.987039161384090313e-01
-9.474098339317610362e-01
-8.782001812176986055e-01
-9.142085666681167844e-01
-1.109725123162074611e+00
-1.029914733808643845e+00
-1.089024876085046056e+00
-9.209897879906646656e-01
-1.093474891257454562e+00
-1.170389864625052123e+00
-1.232692936980322340e+00
-1.157899843922050254e+00
-1.333824229779713377e+00
-1.351656310168978914e+00
-1.401258744608291584e+00
-1.354824538549036728e+00
-1.411198970064410307e+00
-1.500216160438702317e+00
-1.336400276367675000e+00
-1.350134101313603452e+00
-1.336310430251061776e+00
-1.277540221884602145e+00
-1.248877094706920543e+00
-1.151266381719133092e+00
-1.070243604395169967e+00
-9.532435477519877187e-01
-9.633432562384416364e-01
-8.728141853866301370e-01
-8.306086364301876745e-01
-7.430220231421595933e-01
-7.286233321882643610e-01
-6.188076076591858543e-01
-6.263714744602442153e-01
-5.588686974697266718e-01
-4.719371872485735309e-01
-5.368882151608986852e-01
-3.984617354095296160e-01
-3.608753850067953906e-01
-2.251179731350176905e-01
-1.828679998051488398e-01
-1.552327432541387719e-01
4.830532033471349185e-02
1.587302479626756802e-01
2.547730381714834458e-01
2.975912139778448262e-01
3.926503505036349484e-01
5.161299308673991115e-01
6.415084098168498672e-01
6.179415259413658656e-01
7.897363047922533186e-01
7.730658291563045070e-01
8.535158700754498229e-01
9.065266331391627075e-01
9.241175037939032277e-01
8.801136171124617213e-01
8.641901318248982333e-01
1.016778332788468520e+00
1.039751215693760944e+00
1.032675384031583432e+00
1.033136058517589495e+00
9.807035726850703572e-01
1.220321761592368937e+00
1.269118409516239332e+00
1.156638076853541364e+00
1.217554187601443294e+00
1.379460128945500408e+00
1.293877894994002853e+00
1.393681594681089875e+00
1.342666086034818518e+00
1.310190651850348109e+00
1.333182204999423304e+00
1.160603022841816934e+00
1.174916520670701292e+00
1.013932703071132480e+00
9.970148109032421768e-01
1.023646631645416694e+00
9.024971363871495678e-01
7.734050040972201279e-01
7.073016518270521802e-01
7.010072010302313972e-01
5.419871394670684461e-01
6.060578682537779427e-01
5.442568731556031159e-01
5.064673128663854662e-01
4.225713239914561381e-01
3.806999519291073275e-01
2.706968713388491210e-01
2.449505325658822841e-01
1.989245999574207058e-01
1.087712438987454011e-01
-7.715333345942222698e-02
-1.608698495211406676e-01
-2.607958693573207976e-01
-2.793216224708469086e-01
-3.811080201477029528e-01
-4.432217071555830668e-01
-5.031448115664813869e-01
-7.235147340660583737e-01
-6.828091291783011663e-01
-9.176379159663545781e-01
-8.064154263227198971e-01
-8.995148238416431630e-01
-9.681179745772554579e-01
-9.572168347084503148e-01
-1.019261039205878960e+00
-9.968674145047050628e-01
-1.028695151089876081e+00
-9.786581781856694695e-01
-1.082908756708188314e+00
-1.210494739513596540e+00
-1.269556714361716354e+00
-1.348906667084991629e+00
-1.320453526819420409e+00
-1.419796722381280851e+00
-1.379759858734007416e+00
-1.300957084163469446e+00
-1.397069722051416329e+00
-1.407345946767535994e+00
-1.375227086738404658e+00
-1.279242305000738433e+00
-1.398360174306659376e+00
-1.274774104276195086e+00
-1.276115862405974521e+00
-1.214960039502325229e+00
-1.071154901483019062e+00
-1.028153613224193519e+00
-9.173552905788436851e-01
-8.387591747137722598e-01
-7.799906045094149309e-01
-7.751837453251820831e-01
-7.313074272922678309e-01
-6.842642623039892902e-01
-6.909379560540158671e-01
-5.963134563265651833e-01
-4.812921087474810178e-01
-4.171786339742680205e-01
-4.391840240186846156e-01
-3.156397977003410071e-01
-2.986373466831678813e-01
-1.720710658698212381e-01
-1.187859360878001924e-01
-3.381185500235057984e-02
1.079462959643348319e-01
2.023782317195473301e-01
3.269466686983437120e-01
4.720497589691987073e-01
5.832312792123753864e-01
6.226395402975236637e-01
6.518300034297865864e-01
8.188006805814329603e-01
7.022399247460310301e-01
8.287338509797391728e-01
8.778518478802309621e-01
9.017942311931855803e-01
8.074841414723542554e-01
9.125805219192437701e-01
9.546581977284258613e-01
9.115184765090125207e-01
1.006399516674800099e+00
1.004831925020551520e+00
1.029576717599813396e+00
1.139214061074022011e+00
1.178180115507538650e+00
1.214732304685406161e+00
1.239028202646577315e+00
1.275990090899580487e+00
1.348574229571504191e+00
1.346112684087324318e+00
1.250337974143747921e+00
1.293590649666610748e+00
1.213859526940284317e+00
1.127935535960030267e+00
1.127271655325650768e+00
1.002734170964299176e+00
1.044508066596700369e+00
9.210275014907588487e-01
7.875280721889874602e-01
7.561044155094678310e-01
7.336210588996416870e-01
6.957834392629150821e-01
6.168319911600380623e-01
5.450357865723063355e-01
6.149149795889885528e-01
4.762748826857295947e-01
3.922814954480267069e-01
4.027776201518534771e-01
3.661031459866846971e-01
1.710677410943977350e-01
1.763035262529474567e-01
4.885423267238056533e-02
-1.624752080005010049e-02
-2.702889863846112684e-02
-2.624848357169623503e-01
-3.556024662341671361e-01
-3.536761538493844448e-01
-5.710399423745279313e-01
-7.027354242820099683e-01
-7.088322633475387935e-01
-6.791265953857548165e-01
-8.541348411234287452e-01
-8.855952189843235844e-01
-9.136471786912637727e-01
-9.402612132512796483e-01
-9.860872308552461885e-01
-1.032904260656491324e+00
-9.640314007735448776e-01
-1.029571962532728646e+00
-1.093557061052281121e+00
-1.074668674835471460e+00
-1.141012098384540430e+00
-1.222664960442967352e+00
-1.254936505095150201e+00
-1.261759343229051700e+00
-1.338051594076596240e+00
-1.383298720833580298e+00
-1.382274139936411572e+00
-1.408199925874896286e+00
-1.431808650971136965e+00
-1.393876100468251611e+00
-1.317558862766008865e+00
-1.357134607070372923e+00
-1.310008264022104463e+00
-1.232398682367006559e+00
-1.068066036806149199e+00
-1.060345211509688079e+00
-1.020894084331193330e+00
-1.026558362133584312e+00
-9.321987044381578880e-01
-8.118726439563456188e-01
-7.527490764034493465e-01
-7.374463822831881510e-01
-7.081092370965939020e-01
-6.555558946194774972e-01
-5.724820840357384144e-01
-5.086078456815008586e-01
-4.908879489574432542e-01
-3.840994635947204694e-01
-4.028426303274947329e-01
-3.084584144186909294e-01
-1.201934452428280731e-01
-1.380691762914068033e-01
1.022209826324277093e-01
1.222948021114559913e-01
2.036800940741821664e-01
2.165219111867503488e-01
4.710777570763818312e-01
5.155439470607910968e-01
4.516194076930744594e-01
6.781787665189573655e-01
7.396161871284602229e-01
8.034047867870467430e-01
8.323334367746141327e-01
7.256424022405891794e-01
8.388488469443926565e-01
9.218122466858669206e-01
8.908991749011911931e-01
9.470186051207446498e-01
9.013059038399103828e-01
9.624079569834276260e-01
9.681530259716349951e-01
1.074679277342057038e+00
1.103930733231826666e+00
1.099801740529640082e+00
1.197916311158122360e+00
1.200119877949198610e+00
1.336296739679079915e+00
1.243706548950573199e+00
1.258181743804233088e+00
1.244263255025317871e+00
1.381495933057348857e+00
1.268667497719006443e+00
1.257833116874646606e+00
1.101070113362562219e+00
9.994484410659894014e-01
1.023516053862315589e+00
9.507793183299341200e-01
8.034854996110933900e-01
8.057693958440990123e-01
6.680212021127645006e-01
5.906959741131816433e-01
6.006204129893090160e-01
4.816256205469802154e-01
5.231718313226966233e-01
4.601056421608207270e-01
4.720612826027803521e-01
4.283329548981736346e-01
3.193597520185754157e-01
3.651075441177123460e-01
2.029515761787776262e-01
1.411397549263671003e-01
5.565487038513182438e-02
-1.089646341697848853e-01
-1.707878311961266993e-01
-2.531403589614139027e-01
-3.910194116302871947e-01
-6.010640715689717917e-01
-6.101050510945461580e-01
-6.829741874880689290e-01
-8.620580880698087700e-01
-8.692298309673121004e-01
-8.766428974681197417e-01
-1.002208434774811696e+00
-1.002456188966157846e+00
-1.080663040306879097e+00
-1.055886109763168657e+00
-1.089628200462591012e+00
-1.053123216776779447e+00
-1.018812638449344998e+00
-1.110194121016672808e+00
-1.199276946188796877e+00
-1.110674940031724622e+00
-1.242061525791553933e+00
-1.393527066624145050e+00
-1.409854067823772317e+00
-1.438023920958660051e+00
-1.491109939701240839e+00
-1.413681062031836966e+00
-1.384914427714617258e+00
-1.383925325821936836e+00
-1.458463191235178424e+00
-1.247002398785477251e+00
-1.283331163338657488e+00
-1.263052499353273239e+00
-1.099557130858753284e+00
-1.142288598568831581e+00
-1.026524733454974303e+00
-9.687652407792074483e-01
-9.070015670099558225e-01
-8.571610194949960126e-01
-7.657892897476473726e-01
-7.308276320032774942e-01
-6.850813085427530646e-01
-6.960744769716062930e-01
-6.187958187607131011e-01
-6.042463701593904224e-01
-5.396394612050566808e-01
-4.747486601082303026e-01
-4.269184848503609908e-01
-2.365550449853531800e-01
-1.633473349122593066e-01
-1.186960939397295051e-01
-3.531088506125434900e-02
1.253696027644712330e-01
2.430588718738166121e-01
2.849636163517486609e-01
4.075022266231765333e-01
5.075112984504737135e-01
5.133154430942206137e-01
6.160252748453192151e-01
7.376940868309830313e-01
8.278959157933496460e-01
8.034305156633447798e-01
7.727427667478072859e-01
8.028709390638387733e-01
8.382202943727863342e-01
8.635461310125585044e-01
9.137048126970194195e-01
9.897899776730505472e-01
1.051500120187174536e+00
1.027656999583351771e+00
1.029104735329296805e+00
1.047442395709211382e+00
1.188315430444778942e+00
1.187356259259030766e+00
1.226726768696181802e+00
1.237461192611620353e+00
1.396842767407357799e+00
1.249020689323484312e+00
1.191809000073224878e+00
1.340137213851608111e+00
1.287146061654982132e+00
1.183122184959125134e+00
1.139270609923479505e+00
1.020487903095843141e+00
9.417204611455838315e-01
9.470212468482513968e-01
8.074178372006209914e-01
7.424189056941654652e-01
6.837550493569033438e-01
6.557487651559651409e-01
5.840815113365663835e-01
6.155009275205544084e-01
5.712511728598131944e-01
4.137405614909329676e-01
3.905861678228481626e-01
3.966888213810052521e-01
4.026038852467468954e-01
2.427288685899184062e-01
1.501408880684726999e-01
1.264278761365023318e-01
-7.854704665126292784e-02
-1.567320289459522564e-01
-1.559461816699092007e-01
-3.266623997072637953e-01
-5.465373378242045499e-01
-5.366885155883821534e-01
-7.844270200158793838e-01
-7.315148243887200641e-01
-8.372882324402367571e-01
-9.410808026075957455e-01
-1.010440072609365858e+00
-1.008090616310503895e+00
-9.357837783485933869e-01
-1.072470222938770590e+00
-1.023850691568443327e+00
-1.079679194746685944e+00
-1.053198863952599096e+00
-1.083090492421038720e+00
-1.079457276458062553e+00
-1.081955570459598004e+00
-1.311394409474796241e+00
-1.313555439425867499e+00
-1.295272158051191003e+00
-1.353771187189824809e+00
-1.438727172443344138e+00
-1.469902352160558756e+00
-1.350826635272124099e+00
-1.469816277562752793e+00
-1.469882091949421099e+00
-1.375272393552424921e+00
-1.355732865648190621e+00
-1.334564252983191368e+00
-1.211155824983195961e+00
-1.149201189431417358e+00
-1.078994272954664213e+00
-1.010315042966904553e+00
-8.958281031540068495e-01
-9.370564496204344396e-01
-7.480870814068731889e-01
-8.228171192290675284e-01
-6.941163374818771770e-01
-6.815376411301730109e-01
-6.548581755907442181e-01
-5.954252346029550447e-01
-5.894368144575450330e-01
-5.167233903106538406e-01
-4.820296030157988909e-01
-4.066318445996700004e-01
-3.613987710398318121e-01
-2.329267688233016276e-01
-1.706314144272171041e-01
-6.854198168853493922e-02
6.163193485120549431e-02
1.967143516244343193e-01
2.795181291778048860e-01
4.284246307886835359e-01
4.039320351104109252e-01
5.932690643570088795e-01
6.310969940305207748e-01
7.421685940952380545e-01
8.598478649027757603e-01
7.949071392283795223e-01
8.145697559348525907e-01
8.062344849747372644e-01
8.295996165620634910e-01
1.012657094522373624e+00
8.823550724114368471e-01
9.298835226775713503e-01
9.627213418991081850e-01
9.744959165646317478e-01
9.836109396158954077e-01
1.114452891811719137e+00
1.144399829243988531e+00
1.192114506679409658e+00
1.165716741879973428e+00
1.281303651974056823e+00
1.262968290313302377e+00
1.325600149983267029e+00
1.266720471021488104e+00
1.288553632993611586e+00
1.244683088572698049e+00
1.202068534539624478e+00
1.083544171913653820e+00
1.097516298891085818e+00
9.400058627907001974e-01
8.364897194798932567e-01
8.227658841771781084e-01
6.973384475193724619e-01
6.658677305861335771e-01
6.482455567121556683e-01
6.264018424478939862e-01
5.385687439521773534e-01
4.475454497062472115e-01
4.255962490236955831e-01
4.191050344817350282e-01
2.998582475968611383e-01
2.857269433382343404e-01
1.350279092401747150e-01
1.539183173666746618e-01
1.076382332764372340e-01
-2.779587860173250019e-02
-1.488308343521678179e-01
-2.344561325138742325e-01
-3.489053521021481807e-01
-3.332773245006103169e-01
-4.972740036499558869e-01
-6.635879190820908047e-01
-7.666150913166906999e-01
-7.613329905211894122e-01
-8.126566556686323217e-01
-9.396020595303450351e-01
-1.001951905969919121e+00
-1.022358609967569443e+00
-1.017806738406836553e+00
-1.112222131007790438e+00
-1.067042632626914900e+00
-1.129112087510220297e+00
-1.141013681491314768e+00
-1.154062448612219960e+00
-1.170553500314400086e+00
-1.209762215724001333e+00
-1.234688280016615680e+00
-1.239055452299702598e+00
-1.447392736036617444e+00
-1.366267266711540085e+00
-1.385950613687483068e+00
-1.418857669815913880e+00
-1.460999807089955915e+00
-1.518610039797918754e+00
-1.334272653926462660e+00
-1.418467193185333874e+00
-1.430774957574042050e+00
-1.265398054925452875e+00
-1.195577816411405703e+00
-1.140618984715501272e+00
-1.085768684219397873e+00
-9.248442922753368212e-01
-9.224402698233072906e-01
-8.738613206608183415e-01
-8.295742104495091862e-01
-8.437290436884532507e-01
-6.999314509483369751e-01
-7.026267303182871515e-01
-5.841500282222128471e-01
-5.550600258025567557e-01
-6.151299197009502118e-01
-4.271904957188733531e-01
-4.473183768018031969e-01
-4.154321223117934947e-01
-2.233815846830760621e-01
-1.192940007475003783e-01
6.191176434668949763e-02
1.267899948264231136e-02
1.864372139358700109e-01
3.348378247150772258e-01
3.552890992510591706e-01
5.766607079482684028e-01
5.951027952101979324e-01
6.773906735911764398e-01
8.284202286657771364e-01
7.620738363470869192e-01
8.044251954427895646e-01
7.631046274021967557e-01
7.939962753263165585e-01
8.590525754359397137e-01
9.136017090717665212e-01
8.523170005719424847e-01
9.109251114679856043e-01
9.401577983443584197e-01
1.076850611391959367e+00
9.980737726081272410e-01
1.055541441124934643e+00
1.221702263633340335e+00
1.190415253319208277e+00
1.226081598935451655e+00
1.205655523259042017e+00
1.265555078069238615e+00
1.262501428866245723e+00
1.335324085316606846e+00
1.118706319663049564e+00
1.259087516184554723e+00
1.128285710259349095e+00
1.164080102570633102e+00
1.048050684303664770e+00
9.089110923458635360e-01
9.388042447477412678e-01
7.849832750623283451e-01
7.617567212582431191e-01
6.556801860137977389e-01
6.370893408502690258e-01
5.409856795558750653e-01
5.752361683849037677e-01
5.889524634770764155e-01
4.632637995478244841e-01
4.536089386623397557e-01
2.927265030510126098e-01
2.597010252783891193e-01
1.994707949009449366e-01
1.847284215419074394e-01
4.345902375878615831e-02
7.601151425722554866e-02
-2.143171124550830586e-01
-2.424344561843832235e-01
-2.499179663260292505e-01
-4.463626598406713053e-01
-5.497013971662124687e-01
-7.356600542435239865e-01
-7.699890758834784243e-01
-8.614251165757388362e-01
-9.842015820365682677e-01
-9.330138982680491466e-01
-1.015047181431579792e+00
-9.657190240172494056e-01
-9.802051172074649488e-01
-1.034889340158748672e+00
-1.102728732966245850e+00
-1.017279016987364226e+00
-1.032588172904826074e+00
-1.074741827099489067e+00
-1.150807701524399596e+00
-1.247409769231013543e+00
-1.331153057283248176e+00
-1.261551449344603393e+00
-1.343115273000943688e+00
-1.410502644554370244e+00
-1.484527980355577981e+00
-1.434871217650743880e+00
-1.406388257969422906e+00
-1.345744007256024055e+00
-1.393233744817264697e+00
-1.333991710693909649e+00
-1.268888102020442998e+00
-1.289187736804934259e+00
-1.077730773526275332e+00
-1.129581692958037786e+00
-1.042615404024258563e+00
-8.732351377441955886e-01
-9.369758733882944668e-01
-8.789701330518530087e-01
-7.531383104637870973e-01
-7.380083676257824798e-01
-6.808300935553981414e-01
-6.113150595536875898e-01
-6.268911188016446090e-01
-5.946205618927017378e-01
-5.477729629361650643e-01
-5.502922597078261369e-01
-4.858453931461476083e-01
-2.943223679631736811e-01
-3.530926934909746073e-01
-2.410090958758395185e-01
-5.886216906714127062e-03
2.905380053902489185e-02
1.780825025249005156e-01
2.797653431560618298e-01
4.102795748838114487e-01
5.117696921651532227e-01
6.500512837153799017e-01
5.810233624344651737e-01
6.897407991468629262e-01
7.685559599643390083e-01
8.156934635550460166e-01
7.945849300279307359e-01
8.773168494455707567e-01
8.808025507322255754e-01
8.278516123851302755e-01
9.170000806639759805e-01
9.112781729251515639e-01
9.442047144748273446e-01
1.029847234076870066e+00
9.958331018114312538e-01
1.122728103154777335e+00
1.129150669025859699e+00
1.100482260747790653e+00
1.213781716250101672e+00
1.153478849793217798e+00
1.200048129153032272e+00
1.181779320252775101e+00
1.300520835612706705e+00
1.250665080216968095e+00
1.259286460348761905e+00
1.119252097577107419e+00
1.085652164113985574e+00
9.499816316811150463e-01
8.583552677912283935e-01
9.032642427941095509e-01
7.556863056886445884e-01
7.516447144155247173e-01
7.188345741478628925e-01
7.055324508869893485e-01
5.892792152851487053e-01
5.486798350394651580e-01
5.321342535293466236e-01
4.351725904060298467e-01
3.925518721973855207e-01
3.190954010027839960e-01
2.723668256351073347e-01
2.023360235341348234e-01
1.791628356385816800e-01
2.485057516980454864e-02
-1.341811526656983278e-01
-2.105209322800632998e-01
-2.804745642305757625e-01
-2.511698909946462610e-01
-4.115334360266600933e-01
-4.776736007132491579e-01
-6.019681314139117001e-01
-7.672286973412546507e-01
-8.302630707350919792e-01
-8.905959360710360428e-01
-1.006350022345938733e+00
-9.574675423185926570e-01
-1.006139234490625700e+00
-1.053884025677029435e+00
-1.052556629701926649e+00
-1.121697330397296577e+00
-1.138183964672493165e+00
-1.046140574762084885e+00
-1.262205012395152259e+00
-1.185686901785743430e+00
-1.197878339858523322e+00
-1.265739371167455163e+00
-1.309965631478551273e+00
-1.316490428720503925e+00
-1.431346830019393224e+00
-1.421185969057542131e+00
-1.450074590536946539e+00
-1.449705324849631660e+00
-1.475880627219905428e+00
-1.407370581643524021e+00
-1.351797517202862009e+00
-1.315777899587039501e+00
-1.241591489783375968e+00
-1.084006264466947034e+00
-1.077903357095841841e+00
-1.019298606713398225e+00
-9.364933579626665283e-01
-9.660743161043906513e-01
-8.912743084784632286e-01
-7.339579545685998019e-01
-8.013211328371783182e-01
-7.640320870239238893e-01
-6.439701305739178316e-01
-6.632812618954407879e-01
-5.670898443014513735e-01
-5.301469353258828621e-01
-5.737261537472628792e-01
-3.797846566759239817e-01
-3.266862870202157376e-01
-2.082934673520429603e-01
-1.324219300291648582e-01
-6.319635903682438438e-03
-1.349024914699822886e-02
1.771025798135532348e-01
2.838210229416005537e-01
3.941509240956705407e-01
4.244003333201210038e-01
5.276248090073930586e-01
6.629780212936092765e-01
6.416394412326242858e-01
7.013861764062265802e-01
6.749518247756580713e-01
8.599059533698578672e-01
7.888962597079783867e-01
8.432493818416428866e-01
9.287642087066901864e-01
9.220299741296478224e-01
8.785738985682437496e-01
9.947337585898544665e-01
1.026582910647873437e+00
9.931927421644868303e-01
1.151267797684495831e+00
1.162322005868549057e+00
1.200200310625522793e+00
1.239966809511543033e+00
1.263351953135495531e+00
1.210096711801749159e+00
1.369010126500388447e+00
1.209490311048435407e+00
1.148447505422721004e+00
1.135017312837889536e+00
1.143310204064366786e+00
9.789281795212675386e-01
9.635874030292405079e-01
8.792742877083815634e-01
9.140145833789399266e-01
8.821677730310757415e-01
6.968854526051957432e-01
7.126980608038248066e-01
6.159886365160096577e-01
4.643042650728622101e-01
4.320955319391188154e-01
4.768397756555454725e-01
4.484391016659073914e-01
3.447823886733837329e-01
4.006233047092617183e-01
2.438567237738262783e-01
3.051280349454336682e-01
1.166908710908282215e-01
8.861868331649339070e-02
-9.123213082219513992e-02
-1.365022357193580449e-01
-2.229742481337636528e-01
-3.549932286719488239e-01
-4.723345844476276034e-01
-6.628554562572801512e-01
-6.903224995291579180e-01
-7.826811950637365678e-01
-8.018014975765725971e-01
-9.140469625788268937e-01
-9.418700341589112401e-01
-9.022929213974246743e-01
-1.095060421876206558e+00
-1.038521455479220590e+00
-9.655967260379518802e-01
-1.120998621231192649e+00
-1.118208185024670343e+00
-1.158852928890657497e+00
-1.176622813028132430e+00
-1.246417996228313507e+00
-1.253959524384488766e+00
-1.306108252979258921e+00
-1.325138143269285251e+00
-1.379646283092700321e+00
-1.322065258470972227e+00
-1.442965353642557291e+00
-1.445667745117644953e+00
-1.525896804212203195e+00
-1.335486366102888622e+00
-1.430873336528314388e+00
-1.354556358216194800e+00
-1.326156039549357679e+00
-1.350382225734268138e+00
-1.204945742658507513e+00
-1.149312083859009626e+00
-1.024472154833032222e+00
-9.012769652453419544e-01
-9.676537585089682869e-01
-8.575007686695744757e-01
-8.570091524552719831e-01
-7.861628935208760938e-01
-6.728851973037466294e-01
-7.159127363198626304e-01
-6.236807458006372595e-01
-5.774226979371678281e-01
-4.979023641164450620e-01
-5.355130650810013826e-01
-3.643824359129101964e-01
-2.976220674398653565e-01
-1.763784990954519460e-01
-2.289859129647867086e-01
-5.684140646707185052e-03
3.716022550907981115e-02
1.850092712601929812e-01
3.561267156170213610e-01
3.734545508367573263e-01
3.926204766316171990e-01
5.155177352107743749e-01
6.688212392449098820e-01
6.676876960553874696e-01
7.688503898579968077e-01
8.034151013534153174e-01
8.554731922231967323e-01
8.396795163196683065e-01
8.558044522124444997e-01
8.635862674590536470e-01
9.430217649773233735e-01
9.881889259866728503e-01
1.011719657526478411e+00
1.063307138311648137e+00
1.027367361239058363e+00
1.030568532257114533e+00
1.168013711838346902e+00
1.232431066610425008e+00
1.278172016961883761e+00
1.190325232864363203e+00
1.246607841942655615e+00
1.233053948681369194e+00
1.260072597625139235e+00
1.231484605116217157e+00
1.173256754595407791e+00
1.128762583410011011e+00
1.126817767991649566e+00
1.084210073574187971e+00
9.816897141688813999e-01
8.795653088713846213e-01
8.954991867014058249e-01
7.213068300370677477e-01
6.757244723241011553e-01
5.790081998707733435e-01
5.457000106851485066e-01
5.669325153695252695e-01
5.515006230593838543e-01
4.294522538430582403e-01
3.471703594161180684e-01
2.438681312009833568e-01
2.429434037678084302e-01
2.429738710952696057e-01
1.011889237504574601e-01
2.158955555295431761e-03
-1.154681677022205560e-01
-1.232719209966657570e-01
-2.706961408172333106e-01
-2.578364369720296811e-01
-4.972183042345743598e-01
-6.172850166467703792e-01
-6.442664374927400406e-01
-7.611929974130668963e-01
-8.681919084806056786e-01
-8.470045737874578595e-01
-9.342589628704270899e-01
-1.004744340830950877e+00
-9.973776180880028486e-01
-1.054228751633277339e+00
-1.034917253144506111e+00
-1.133821204366008306e+00
-1.120315249641153255e+00
-1.095271313522878209e+00
-1.137012414350991651e+00
-1.280698945561021818e+00
-1.192177529422181026e+00
-1.271468497944142850e+00
-1.290261388997923309e+00
-1.384661104236325047e+00
-1.415764867706317265e+00
-1.472070813756438445e+00
-1.414084353203590272e+00
-1.472943291830299373e+00
-1.465340200968443529e+00
-1.362565479560512660e+00
-1.349823510097039492e+00
-1.308524747583655667e+00
-1.328521768930871483e+00
-1.228791287353029560e+00
-1.095439309041190024e+00
-9.938419237704764209e-01
-1.025604287226904443e+00
-9.897414577041850903e-01
-7.741739173725308287e-01
-7.835389676037063378e-01
-7.801500764901251328e-01
-6.957106267377803910e-01
-6.660862665996408749e-01
-6.137407995231771718e-01
-6.696361350307552529e-01
-6.792013483008771946e-01
-4.633290624263700641e-01
-4.760464274233955351e-01
-3.944975445388489432e-01
-2.367206609357199731e-01
-2.252948695152075520e-01
-1.016031472822937765e-01
1.509408628400818186e-01
2.244368672621854244e-01
2.580701675998030575e-01
4.389873387080280853e-01
4.131655432793019944e-01
5.456547736347733268e-01
7.148924524309018258e-01
6.556669350853544520e-01
6.846197901483648263e-01
7.618657734487129796e-01
8.352845669405241091e-01
8.326412974090244834e-01
8.634155143213300132e-01
7.741107540738867421e-01
9.636365162943606455e-01
8.426015372825294003e-01
9.791114543583746554e-01
9.991046627511701583e-01
1.098641812107643778e+00
1.071386001751616357e+00
1.115208532778996453e+00
1.233698972174273489e+00
1.236801939850467269e+00
1.259271673579843709e+00
1.194945065574948950e+00
1.252893775761436013e+00
1.229157902864385754e+00
1.287710180883559818e+00
1.144512862568373812e+00
1.180714223783669636e+00
9.515478116218216709e-01
1.008720128470540045e+00
9.367882799052936749e-01
9.123553532234338626e-01
7.479756406807755997e-01
6.716669053990562688e-01
6.028797287307724462e-01
6.632841683778896158e-01
4.825010317323913944e-01
4.727435079048114552e-01
4.989614845047727343e-01
4.739056130535064248e-01
3.856192576037899555e-01
3.145626521902534223e-01
3.317842838735646227e-01
2.120606058329182753e-01
1.437583983751212213e-01
-3.735661220916550174e-02
-4.827092870277675807e-02
-1.222444903235875291e-01
-2.277680995596600699e-01
-4.477881767044416539e-01
-4.600497015731402906e-01
-6.089261096676394924e-01
-5.927285056601736546e-01
-8.879701745320962569e-01
-8.203262703197355954e-01
-9.163688273357214475e-01
-9.230172222410836236e-01
-1.085613769449299770e+00
-1.003076885001135787e+00
-1.006989704131198815e+00
-9.912359554215262047e-01
-1.101359994512234541e+00
-1.089830649602477664e+00
-1.128090541726358698e+00
-1.239592047851375778e+00
-1.095082708446899256e+00
-1.138356965700223711e+00
-1.268849754871367086e+00
-1.373800983297861267e+00
-1.339589691110113945e+00
-1.375806895746448877e+00
-1.434092459550587506e+00
-1.437421583830540195e+00
-1.493389397860278578e+00
-1.441145520062220298e+00
-1.423942339462525020e+00
-1.377322648735634703e+00
-1.422965536977533141e+00
-1.232167442048363482e+00
-1.150420374440144888e+00
-1.150742230209278461e+00
-1.042485500677097443e+00
-9.618652131666112215e-01
-9.234923774619248071e-01
-8.784160330549051210e-01
-8.048882907943440967e-01
-6.798696415323276510e-01
-7.799983082802858236e-01
-6.448521070755853790e-01
-6.249961667623743500e-01
-5.673433575550765884e-01
-6.031381899297700855e-01
-6.296094201303148452e-01
-3.412737430512939318e-01
-3.418034628903000027e-01
-1.640856810917954989e-01
-2.126244666161788976e-01
1.960377125736401799e-02
3.383888692715590618e-02
1.864722422781404376e-01
2.555201604708173813e-01
3.565725968007169566e-01
4.806604580476682709e-01
4.929471290142327655e-01
7.170605130349321232e-01
6.377322734500556756e-01
7.444816486118519538e-01
7.775406241699892584e-01
7.959272040991057784e-01
8.369889660682044985e-01
8.916449828183279358e-01
8.511489462282615381e-01
8.920216414117592141e-01
9.168264769391470947e-01
1.000763396148241169e+00
9.410690305298106129e-01
1.069858757490598666e+00
1.044397845646622747e+00
1.154887005852339055e+00
1.113253130826783233e+00
1.239054943622824645e+00
1.293972972185006842e+00
1.184002825457272312e+00
1.277807160196769098e+00
1.266008489500138223e+00
1.242547953185678677e+00
1.174277657299300781e+00
1.173757235901311091e+00
1.090672465443991435e+00
1.049423405427127642e+00
8.510226819390821484e-01
8.214156685323248386e-01
8.192728332356268295e-01
7.611961194887311155e-01
6.667554680021725577e-01
6.093672890069408155e-01
5.709077349726285888e-01
5.902191143930224371e-01
4.809728777611111394e-01
4.047107152037477951e-01
4.512990381153206831e-01
3.225244618857951440e-01
2.996701471583081977e-01
1.487781184207887519e-01
2.482236586580873761e-01
7.532183826627986134e-03
-8.987658516214536153e-02
-1.112927740010951072e-01
-2.641875145391482382e-01
-3.705562866347690276e-01
-4.717744324824400537e-01
-5.392708375148507205e-01
-6.146178754422145785e-01
-7.139111566642969420e-01
-8.248457512291397231e-01
-8.864498250501925414e-01
-8.917577897865117675e-01
-9.950615959886331963e-01
-1.161585166434405236e+00
-1.016372906482352567e+00
-9.650820344211059609e-01
-1.083459094239209053e+00
-1.223805868262618057e+00
-1.111334312980949868e+00
-1.210338279455147159e+00
-1.250375490746071794e+00
-1.201853469398216800e+00
-1.278224244462143666e+00
-1.307859216095922372e+00
-1.426119431598913634e+00
-1.473846477556018719e+00
-1.436208165141359183e+00
-1.512153816914991733e+00
-1.421410478856870441e+00
-1.438825068303775545e+00
-1.394050081135906449e+00
-1.411591760824738806e+00
-1.430573326964639236e+00
-1.277056703266275406e+00
-1.265192685066806488e+00
-1.127184865078810772e+00
-9.617967641990452510e-01
-9.603170774566617274e-01
-9.634926984833902530e-01
-8.271840779821971745e-01
-8.229534580794820586e-01
-7.789901145465477628e-01
-7.540461815369853271e-01
-6.514112148341061337e-01
-6.306474102491432809e-01
-5.312590727335375629e-01
-4.315357641490172869e-01
-4.127332327331962869e-01
-3.554843959866122449e-01
-3.859043803481781998e-01
-2.295805302478467202e-01
-1.008922027331264903e-01
2.432497271412920742e-02
1.689541678518604595e-01
2.173642759101117317e-01
3.149211612306689889e-01
3.692004531514158638e-01
4.840033836851178606e-01
6.146982291572669066e-01
7.450976990670843403e-01
6.588511708174320525e-01
7.509020898765526031e-01
8.148043530326862793e-01
7.608754402317408072e-01
8.885503018462388436e-01
8.144772556584236600e-01
8.567298184281615381e-01
8.045306143434948210e-01
9.880866256131310976e-01
9.760330537951420471e-01
9.313374494393952263e-01
1.040860684212036480e+00
1.067898921324834438e+00
1.132644345422543886e+00
1.020073802128914409e+00
1.253011959283019561e+00
1.237015528146401921e+00
1.280127257644851690e+00
1.262774658809228123e+00
1.184650094889472483e+00
1.220148186625427567e+00
1.224574178115838352e+00
1.071664664798346100e+00
1.103616095118544971e+00
1.042338956769374159e+00
9.019228652123787437e-01
8.529874237317003338e-01
7.289061995306179709e-01
8.196287119943219679e-01
7.708856399425083605e-01
6.530608576100334073e-01
6.177694314733011005e-01
4.953617245169081307e-01
4.922603107486727692e-01
4.707119647437387200e-01
4.432938298848895231e-01
3.162712847633932234e-01
2.962533535928993378e-01
1.924067464965205643e-01
2.475215261877616868e-01
4.763638866789904336e-02
-1.562105499500378303e-02
-1.729080809803182905e-01
-2.149566197039650128e-01
-3.164583974931679533e-01
-4.647845954386932710e-01
-6.712070709883851682e-01
-6.372317377826729468e-01
-7.656349094189903726e-01
-8.366666023323646728e-01
-9.761168322985093182e-01
-9.119350695523867900e-01
-9.136011498069276371e-01
-9.524315867780541733e-01
-1.120125104594056342e+00
-1.021699830248621321e+00
-1.117164241482988318e+00
-1.025209577042465625e+00
-1.118103906079016108e+00
-1.170173865381163525e+00
-1.268017690829598365e+00
-1.233041483279618822e+00
-1.217708738776047239e+00
-1.311535219248977535e+00
-1.332716249317410062e+00
-1.391387670548565936e+00
-1.399253047289010121e+00
-1.505922931528437037e+00
-1.417822095043842046e+00
-1.514042168160448121e+00
-1.485934683446141324e+00
-1.313864339865150832e+00
-1.341568595915602291e+00
-1.304842541838207470e+00
-1.191564527290467357e+00
-1.108661849524980036e+00
-9.590104607097520439e-01
-9.127132593153498563e-01
-9.496820943530828174e-01
-8.298750697752472760e-01
-7.898895856842358398e-01
-8.767220498659097361e-01
-7.527788895174555295e-01
-6.335960047585454946e-01
-6.399501314692916942e-01
-5.382616358978690174e-01
-5.048496402332824928e-01
-4.687760306913042463e-01
-4.616619395580930374e-01
-2.407317657043643311e-01
-2.601089948928371753e-01
-9.206743177303530756e-02
-3.936738614486583188e-02
1.414171528692893531e-01
2.014349127784600124e-01
3.437461636448804758e-01
3.771154442273354501e-01
4.197587284617058656e-01
5.631698755001165457e-01
6.373804639566630348e-01
7.612702407233761237e-01
7.607542337985185865e-01
8.228163263612197076e-01
8.036058639220079458e-01
8.370936896493388346e-01
8.392123839858931511e-01
8.881309956240175385e-01
8.695926695136805273e-01
9.522571281806699872e-01
1.006850070261712249e+00
1.023657435742511446e+00
1.008389527011707365e+00
1.055615253229368777e+00
1.125004387579495502e+00
1.112337039157044405e+00
1.135576255015616765e+00
1.242457332510560120e+00
1.387063389548436554e+00
1.299774117883571112e+00
1.198127124878294980e+00
1.301365861907639143e+00
1.209431761212054868e+00
1.090728700356511593e+00
9.989770188029637454e-01
9.372147448233903999e-01
9.355333590266229349e-01
8.482574682041340575e-01
8.260783305373868846e-01
7.040044761578705401e-01
5.846638774832324525e-01
7.034031551857655717e-01
5.105569011687778325e-01
5.131671088570960437e-01
5.673835950409582551e-01
4.736308499442232756e-01
4.088782946986792011e-01
3.558452331564324611e-01
2.549418275593006156e-01
1.523443373122214672e-01
1.647015087295954638e-01
4.626844005555553335e-02
-5.272744402506364392e-03
-1.482412541498263348e-01
-2.657064851633000324e-01
-3.012974457610351209e-01
-5.059324116135966998e-01
-6.072999918515280537e-01
-6.422798102943518828e-01
-8.225149408846406107e-01
-8.432457647750879470e-01
-8.870216685441534299e-01
-9.997033006418670764e-01
-9.435950654594481568e-01
-9.199112977911356737e-01
-1.048268322278497866e+00
-1.039421346861663320e+00
-1.277802036415724318e+00
-1.149202710807084138e+00
-1.096351149374810152e+00
-1.185311545871156058e+00
-1.134174480464768209e+00
-1.283769592614956601e+00
-1.374866841914345716e+00
-1.406962230344597886e+00
-1.423544602111859625e+00
-1.397300035800992823e+00
-1.428791187111361438e+00
-1.453291403946723070e+00
-1.471334751260020113e+00
-1.477784139765689009e+00
-1.493807263897770410e+00
-1.400128313875522501e+00
-1.324319977789820468e+00
-1.245962113490315604e+00
-1.207580481170628994e+00
-1.149780083744206038e+00
-9.607628383288007168e-01
-9.607567125211010639e-01
-9.082577443963024688e-01
-8.481759030602054050e-01
-7.719426251455661081e-01
-7.575422542974382667e-01
-6.470286294252223236e-01
-7.182358743422387892e-01
-5.808008758477345435e-01
-5.876547304394631466e-01
-5.147237028169134865e-01
-4.987301137896532621e-01
-3.912998129787166879e-01
-3.008632088735584964e-01
-2.746098712672023767e-01
-1.909604722837787427e-01
6.243520966791461790e-03
2.994702330251067940e-02
1.982206271620056692e-01
2.758397707445367497e-01
4.158184678038939208e-01
4.838102769171474526e-01
5.870256464545344777e-01
6.845646656419865916e-01
7.849459022476250603e-01
7.067195338329772536e-01
8.329160464053960711e-01
8.467081259393605119e-01
8.212402251431862865e-01
8.878341723451119716e-01
9.991088218654045061e-01
8.525029506130737955e-01
9.391532255231691551e-01
8.898283051993403081e-01
1.110904473702288842e+00
1.069640456481829371e+00
1.144635479138243372e+00
1.113908449687274205e+00
1.179006548715858083e+00
1.249850042799285577e+00
1.277376571850533882e+00
1.322319841204167901e+00
1.220619025645573563e+00
1.224233740209275112e+00
1.274460134215965601e+00
1.186644607407008278e+00
1.170014500882454955e+00
1.077296661329579797e+00
1.033609592176248926e+00
8.395506600192876867e-01
8.553355168065447378e-01
7.409722825842799399e-01
6.981233858447625229e-01
5.736611277000940312e-01
6.550260448639704247e-01
5.825838145158050985e-01
5.091456220775543162e-01
5.039821804836049912e-01
4.655319719534365408e-01
3.812972853138534846e-01
3.680449432390892062e-01
3.573479849895122018e-01
1.257965424170720548e-01
7.902479188271344102e-02
-1.344968605915761173e-02
-4.468249708816337401e-02
-1.471990315495823320e-01
-3.052250204079862139e-01
-3.787267740429268170e-01
-4.765130477500840733e-01
-5.857927832617380037e-01
-6.357131150118164875e-01
-7.659496901864317753e-01
-8.470253618360913395e-01
-8.562931636685489067e-01
-1.021422708864550888e+00
-9.051813839276434681e-01
-1.063022676746300244e+00
-1.085396172111211088e+00
-1.011768102459692731e+00
-1.090427080472874399e+00
-1.049959633884571142e+00
-1.084138021008829167e+00
-1.182893706215167207e+00
-1.171929653587249209e+00
-1.203550982026055483e+00
-1.315430415248663110e+00
-1.330704810510896730e+00
-1.282367208857923435e+00
-1.444221910384292151e+00
-1.532781289951834047e+00
-1.480345786082436277e+00
-1.513931712367268645e+00
-1.410128977631515124e+00
-1.418593922247771033e+00
-1.371529320116640749e+00
-1.283084008484298710e+00
-1.299051652791806566e+00
-1.111356377475390289e+00
-1.098232405414764079e+00
-1.084393377431588590e+00
-9.577519901891244913e-01
-8.438210031634190145e-01
-8.095219195260774381e-01
-6.562130675890618381e-01
-7.540818532536094354e-01
-7.655569798563772732e-01
-6.129640426960213384e-01
-5.504621199913719565e-01
-5.321336540436433227e-01
-5.214269331260993345e-01
-4.949462849443716506e-01
-3.945799410070204294e-01
-3.086396444603435318e-01
-1.760500389059944937e-01
-1.960394620627946005e-01
6.126947692153278391e-02
1.674081806781699266e-01
2.002459289990889957e-01
3.282915870484027776e-01
3.765744897855719531e-01
5.854061642216161765e-01
6.336156752879371634e-01
6.425252953875809636e-01
6.946520896660750566e-01
6.805421499897829074e-01
8.993341216775860847e-01
8.127534295685651111e-01
8.700306585347442612e-01
8.916248959984346412e-01
9.435972639774752313e-01
9.259556785839200277e-01
9.474435299991785797e-01
9.714729234401693336e-01
1.031164034354621339e+00
1.023269969950333147e+00
1.034465306245687444e+00
1.074405774297098493e+00
1.189447647321493218e+00
1.155604234649284745e+00
1.264552031678090271e+00
1.177097175619429947e+00
1.236107549280034634e+00
1.234750474594064729e+00
1.247656292341486672e+00
1.217294033984010815e+00
1.046743737720129186e+00
1.088166120230370071e+00
1.005680389128835062e+00
9.516447670193642905e-01
8.289937814280776696e-01
7.689321148552438201e-01
6.816933137182299429e-01
7.480707172024951834e-01
6.040947355595562840e-01
5.823612812628838897e-01
5.899957663516095518e-01
5.976468978661630960e-01
5.284895917764107498e-01
4.537407618506175133e-01
3.266741086570419395e-01
2.729934317178644432e-01
2.162815966707464788e-01
6.795641883261616112e-02
2.544347205134273038e-02
-9.684164571864890825e-02
-1.735038938508210449e-01
-3.759838877728051698e-01
-3.617843549021633742e-01
-4.035129327066100946e-01
-5.744092306888507471e-01
-6.935272271507264552e-01
-7.072997459355130356e-01
-8.849248151059656564e-01
-8.294458939192236313e-01
-8.499333209917278031e-01
-8.997653719737106481e-01
-1.043523828283707600e+00
-1.013656837646301323e+00
-9.332104868534546460e-01
-1.080791363526516946e+00
-1.088880638665588485e+00
-1.185729465978745401e+00
-1.232939476532659784e+00
-1.188972330600275518e+00
-1.162047073937950925e+00
-1.260757818069010661e+00
-1.284786238074617337e+00
-1.306405285708527098e+00
-1.511456042716467829e+00
-1.427918874908076896e+00
-1.398460294522652303e+00
-1.424715368785789638e+00
-1.362685120102334890e+00
-1.382168540710192017e+00
-1.401432878189820874e+00
-1.349768192781325649e+00
-1.125432406005301145e+00
-1.070489441438631673e+00
-1.118446658740650301e+00
-1.056261521844759077e+00
-9.814043090428850036e-01
-9.017035180377706016e-01
-8.024035287337024647e-01
-7.559675995809902460e-01
-6.916402329709397945e-01
-7.745393372243194463e-01
-5.015516085690602255e-01
-5.909112560383609214e-01
-4.972562405609587399e-01
-5.839807308853541823e-01
-5.151613153465407491e-01
-3.368782567564747032e-01
-3.528328450472520972e-01
-1.172135508135355580e-01
-1.672175968413495972e-01
5.171394936869946890e-02
9.433904550697119751e-02
2.000717550126770439e-01
3.082261716612867963e-01
4.380218599772223720e-01
5.335981198866837083e-01
5.576499908446271858e-01
6.910020246542646349e-01
7.400191947989334107e-01
8.382511399737948565e-01
7.622677674798015168e-01
8.800918212759740733e-01
8.681170967895807111e-01
9.520744777183812735e-01
8.370014990919322218e-01
8.822311678581535865e-01
9.727979180743325793e-01
1.026372220435528115e+00
9.433033561084396279e-01
1.056073882246749251e+00
1.087388880748539677e+00
1.214777652853576306e+00
1.220712753818191887e+00
1.270113961551080806e+00
1.278361590870208397e+00
1.317568765510163109e+00
1.296801779211616434e+00
1.254225394305306995e+00
1.357357425122163175e+00
1.187034155383531742e+00
1.200825772970048666e+00
1.102182661161287269e+00
1.110088131862452254e+00
9.574447396275430622e-01
8.884883240787793124e-01
8.040603353139955667e-01
6.363929903708054336e-01
6.516506971458243536e-01
6.241339471430037422e-01
6.396571802673021168e-01
5.147002765937092050e-01
4.753107095949589689e-01
5.024537323052599147e-01
3.267129841969807491e-01
3.314195647450527971e-01
3.228351551076205084e-01
2.173309523780745378e-01
1.792600232753736034e-01
7.939851184486368396e-02
5.418998337954937516e-02
-1.365385159458849806e-01
-2.043320065219229320e-01
-4.071673280884040014e-01
-4.392327859738563989e-01
-6.041557938891243262e-01
-6.686240135050104394e-01
-6.749848982739891090e-01
-8.670380998995775856e-01
-8.481127844571186847e-01
-9.186694166424156371e-01
-9.973173172514404605e-01
-1.018389575769530264e+00
-1.049305040222137109e+00
-9.695360795952516764e-01
-1.011968760761740027e+00
-1.008398124904970494e+00
-1.073220269533890825e+00
-1.075832907871384192e+00
-1.024482284341191374e+00
-1.133986226832401023e+00
-1.202170334083412895e+00
-1.267331287387362337e+00
-1.399151778158607140e+00
-1.368113332625036094e+00
-1.312216096689390765e+00
-1.480994834400585214e+00
-1.385278241695920620e+00
-1.373615077821489283e+00
-1.420900628472321126e+00
-1.334805350399825619e+00
-1.311240553276749932e+00
-1.228538076599090534e+00
-1.205340305371834120e+00
-1.250784537118290851e+00
-9.535083264178730866e-01
-9.111357333309966222e-01
-8.844342359556903732e-01
-8.977047129434688744e-01
-8.148914428593335701e-01
-7.203286262440359300e-01
-6.123947078040857805e-01
-6.170041736074269867e-01
-6.621036363137288161e-01
-4.912706159492783442e-01
-5.965902675544990652e-01
-3.851212296096185872e-01
-3.387101386615793408e-01
-3.681092395570392251e-01
-1.811513964004083377e-01
-1.576752049025384461e-01
9.008578128587017841e-02
1.555007325126078199e-01
1.900145872157715243e-01
3.296544953098689557e-01
4.687951747320362461e-01
5.259566765678630462e-01
6.213726087203165216e-01
6.654008078396671522e-01
6.209034814401224178e-01
7.930105533977068744e-01
8.508544993455411376e-01
8.864321839059809971e-01
9.499623127857175220e-01
8.410479508607130450e-01
9.374896799924186119e-01
9.149248337177073864e-01
9.385657860806562169e-01
1.013679290716263948e+00
1.002592159576003450e+00
1.064224149957188947e+00
1.172784237518810446e+00
1.175772707280793306e+00
1.242843169365575706e+00
1.217284288512865187e+00
1.315446742852643958e+00
1.315653029952215558e+00
1.336117013922714092e+00
1.349428801506406650e+00
1.188876389703867664e+00
1.129944780787162095e+00
1.203836000869607403e+00
1.137456157938871337e+00
1.066362377067697986e+00
9.342291089990821806e-01
8.588366442198613893e-01
7.624327378491470020e-01
7.029948601106347228e-01
6.831744430078305896e-01
5.356734873920785400e-01
6.503168419407535650e-01
5.539219846910883316e-01
5.603575054021883162e-01
4.540399555284996280e-01
4.087757577913743723e-01
3.710311454485052951e-01
3.065084526511289709e-01
2.266817298096128752e-01
1.899135685769063886e-01
5.254821731523912076e-02
-7.044242784716497896e-02
-1.160032631780639756e-01
-2.920456642900347566e-01
-3.435132693932763659e-01
-5.098564198175428164e-01
-6.200715687204727544e-01
-5.972702842615714713e-01
-8.116131297249025156e-01
-7.744643593428799377e-01
-8.344982535600574680e-01
-9.170346423829170979e-01
-9.041693710300094944e-01
-1.031971544042141753e+00
-9.990276279187086939e-01
-1.023980383424388352e+00
-1.094048851415224233e+00
-1.079898083974236922e+00
-1.097967048697150005e+00
-1.119088815515673963e+00
-1.156877219340723739e+00
-1.201993250528493373e+00
-1.291258057493847256e+00
-1.357897245717864854e+00
-1.417347823635255244e+00
-1.247232190771453419e+00
-1.388119602171628664e+00
-1.374387959368152723e+00
-1.469006364966593203e+00
-1.389984429941005128e+00
-1.459412525230530777e+00
-1.197007299520107093e+00
-1.268238297349869814e+00
-1.132147248432976872e+00
-1.178355748016965077e+00
-1.049457210995238032e+00
-9.077466478247053772e-01
-9.280522496893011120e-01
-8.882976854051140014e-01
-8.650753024557473747e-01
-8.083946138412331228e-01
-5.826801346254054659e-01
-6.237476251577458441e-01
-6.564313763458814455e-01
-6.124699985116793810e-01
-6.405702311158529838e-01
-4.553292222281306034e-01
-4.347072425664262885e-01
-3.478452988956107217e-01
-2.066694249330100486e-01
-2.274380768477291537e-01
-5.095162581101384675e-02
4.357668049090895196e-02
3.842748190898900851e-02
2.080691896622612891e-01
3.591983267722853590e-01
3.837580674973640193e-01
5.910153408995614255e-01
6.480561299755953630e-01
7.371035115736516152e-01
6.481648349384372398e-01
8.188356622450798650e-01
9.506669021328597591e-01
7.834550904816685035e-01
8.708688674663143114e-01
8.283081124189907163e-01
8.170334364014416595e-01
8.363079845643810462e-01
9.239023105762528276e-01
1.020020671334516349e+00
1.154661397719966009e+00
1.112462820350302861e+00
1.016267973384730849e+00
1.252024372154484366e+00
1.304354323712723973e+00
1.227641047321788248e+00
1.396319358593483440e+00
1.217361033603971521e+00
1.272636336559733961e+00
1.366371266758624969e+00
1.302958270223681714e+00
1.280790287262309812e+00
1.198854779316201435e+00
1.085437707897347615e+00
1.088751731529492783e+00
9.104571759859672042e-01
8.899584764957770844e-01
7.496568029548713596e-01
6.982286334240762615e-01
7.356942542283039232e-01
6.261861667566490652e-01
5.837041361485285629e-01
6.367459287070544871e-01
5.747746492578700295e-01
3.868676919879699971e-01
3.961295751480570226e-01
3.344059495069944821e-01
3.412340363550987465e-01
2.122217705514762298e-01
1.292911320125939290e-01
1.500256066653886666e-01
-1.150226192881955052e-02
-1.613712615247802629e-01
-2.225146107354781522e-01
-3.004026290538272526e-01
-4.063913428060272892e-01
-5.459490248531176926e-01
-6.642223200455366072e-01
-7.008818656917298329e-01
-8.539214465787529074e-01
-8.247692830570787503e-01
-9.099384862104382687e-01
-9.826896633454734742e-01
-9.818140997123275815e-01
-1.059595757253147363e+00
-9.978252402530173315e-01
-1.021652324232775744e+00
-1.135379823886446760e+00
-1.035096530980900598e+00
-1.103805173414553309e+00
-1.110732631811596205e+00
-1.129859184603346112e+00
-1.147327152876693290e+00
-1.223250078865491419e+00
-1.342071879780415422e+00
-1.273331322609751570e+00
-1.486803708673490876e+00
-1.375531476143851295e+00
-1.303985866908681235e+00
-1.478174054111904390e+00
-1.398138488510560107e+00
-1.380020735155567779e+00
-1.283002701338460172e+00
-1.190037909721939569e+00
-1.145630132587766026e+00
-1.041501597119335765e+00
-1.000774334023197820e+00
-9.859758072971358533e-01
-9.177668026545339197e-01
-8.294892305044621050e-01
-7.305669856747262214e-01
-7.455230900095879409e-01
-6.086623521819782834e-01
-4.981214460723673021e-01
-5.719832718889529266e-01
-6.281699064893591089e-01
-4.658228528299260263e-01
-4.804301830054501510e-01
-3.789413529076952059e-01
-2.032790040089927919e-01
-2.355162113573324167e-01
1.290169609798716421e-02
7.903342118677117445e-02
8.529076618833908441e-02
2.316451197753984781e-01
4.208931783293262674e-01
4.966386644620779389e-01
5.156313568645454204e-01
6.324611220743767692e-01
7.104006829079696494e-01
7.296513282784286014e-01
7.669500609958397330e-01
8.100451583016995416e-01
9.039171305364209763e-01
9.212278694017039804e-01
9.449582296703489259e-01
9.725502622437427469e-01
9.495413320983415728e-01
9.706341655280750214e-01
1.058119066872740044e+00
1.169801844086389098e+00
1.118296916162592192e+00
1.114072484596672075e+00
1.208710834601938400e+00
1.299088608667825717e+00
1.218215362665288737e+00
1.382405414823510093e+00
1.380641947731980013e+00
1.301516530569861274e+00
1.321483312657163678e+00
1.182654501865670227e+00
1.217179495440405823e+00
1.079435135300319981e+00
1.171288940959609004e+00
1.096388350715583826e+00
1.060376470050933273e+00
7.968758834396455493e-01
7.550868261026982831e-01
7.125493488327255820e-01
6.693765276677482445e-01
6.100246409346685716e-01
6.020466392313292836e-01
4.473196329836440777e-01
4.541619258628535882e-01
4.868980833220145077e-01
4.337278531124415526e-01
3.223633215790892570e-01
2.780473859312004858e-01
3.067774175981808349e-01
1.198811061300910086e-01
7.555413218738649128e-02
-1.550426113310968655e-02
-8.868827908532045390e-02
-1.406689984457747955e-01
-2.733613212965639305e-01
-5.123732786217020108e-01
-5.334880043176993825e-01
-6.811829572705155877e-01
-7.705704667145475417e-01
-7.330249114388265319e-01
-8.153305345965556894e-01
-8.794508309280796299e-01
-9.644716135947120073e-01
-9.224048833395700475e-01
-9.222347655481387685e-01
-1.001311374664484832e+00
-1.044851371728426903e+00
-1.162653729928601942e+00
-1.071758663140395917e+00
-1.087596370768644904e+00
-1.205317498579097091e+00
-1.221030591981048685e+00
-1.287965387250649574e+00
-1.339851993175878331e+00
-1.296838455119742495e+00
-1.391733952775344951e+00
-1.398395467896599964e+00
-1.502861998482400097e+00
-1.397315816190007443e+00
-1.452889450072376798e+00
-1.314878688917366478e+00
-1.319087292295271219e+00
-1.242611364940252150e+00
-1.153201813889208616e+00
-1.102575472492355102e+00
-1.032378693454559349e+00
-9.524545391019458851e-01
-8.945646493168563085e-01
-8.976855753531399751e-01
-8.227022401542569696e-01
-7.605913519453458838e-01
-6.772033794720455635e-01
-7.218429446480784106e-01
-5.895743373213148120e-01
-4.774969453801772845e-01
-4.681649042329376065e-01
-5.119845002112503041e-01
-4.828993576589855063e-01
-3.099723662171041672e-01
-2.823989600547541778e-01
-1.736899195154485431e-01
-4.035102344226703525e-02
3.942616977572068609e-02
1.431595235072481986e-01
3.155374384753709682e-01
3.117845738867970340e-01
4.023987280068334060e-01
4.291069879234500339e-01
6.174776229317353593e-01
7.006619003583779426e-01
