3.058640422017350202e-01
3.521144295842471572e-01
3.373474972925577520e-01
5.489497949308972391e-01
5.676309940871857584e-01
6.521952186784490957e-01
8.297996309667120540e-01
8.974188944421311875e-01
8.770077303441233818e-01
8.393906962670817373e-01
9.018843363065852659e-01
9.789909123774340749e-01
1.078180560558951839e+00
9.778850071903343322e-01
9.944616974269854248e-01
1.132125361187171553e+00
1.123267186539652407e+00
1.086610986116801847e+00
1.211157939943915185e+00
1.219092591877048992e+00
1.281182117778574936e+00
1.333560177773856381e+00
1.245358726561691887e+00
1.428831884340504121e+00
1.371982963651806831e+00
1.335231127472628510e+00
1.337430834076669184e+00
1.384731793490947993e+00
1.309535670410013619e+00
1.181690761964341085e+00
1.167158277512164721e+00
9.736156042946999545e-01
9.443390821880645047e-01
9.078202017358286691e-01
7.228889156727402732e-01
7.504776240207400306e-01
7.231217817854375118e-01
6.446215107242936337e-01
6.775131000506420254e-01
5.803765144972403700e-01
6.197093006848964913e-01
5.239963292283666974e-01
4.484605914493218770e-01
3.680260759318301211e-01
2.830432166190102738e-01
2.858222911381115283e-01
1.977974113448299487e-01
8.843204325721075454e-02
-3.518321391460882408e-03
-1.190561856253248424e-01
-1.507362856681563335e-01
-3.132372550349376006e-01
-4.511896255444127202e-01
-5.277410636598102167e-01
-5.343271377073517403e-01
-6.797434139423118582e-01
-7.952527750779969651e-01
-8.625742754758389808e-01
-9.037902429970960938e-01
-8.699309266035638588e-01
-9.621749358127171803e-01
-9.851586174162491050e-01
-1.021404737167792565e+00
-8.698071023929272449e-01
-1.022672104138126370e+00
-1.071101712318430987e+00
-1.098851848442631063e+00
-1.162627903685179431e+00
-1.140772300289093488e+00
-1.255055532050684652e+00
-1.255318438672412773e+00
-1.282702438356964070e+00
-1.357157493570225526e+00
-1.362413725140499965e+00
-1.363677160320306614e+00
-1.318878629991588225e+00
-1.337987455430169614e+00
-1.283487053468656214e+00
-1.228085189550565115e+00
-1.167221120557475178e+00
-1.133962391258170888e+00
-1.087385339588226252e+00
-9.155386829178555619e-01
-8.923498019625526467e-01
-8.030738524542273549e-01
-7.411930732207484551e-01
-7.032504785310109696e-01
-7.208143855239331765e-01
-6.694121215223393095e-01
-5.495141955094443587e-01
-5.564485067398715623e-01
-5.242844577106618997e-01
-4.355549093860590082e-01
-3.672458091354290355e-01
-3.857234225464615252e-01
-2.627275607876290442e-01
-2.154654817384865639e-01
-2.054593608053292830e-02
-4.318302270068067467e-02
1.666876171292204500e-01
2.556754776225483305e-01
3.717886974971257308e-01
4.304663237131071685e-01
6.130923546940337809e-01
5.671617045785866118e-01
6.991367867347419995e-01
7.902339236774165165e-01
7.849596282540254322e-01
8.719746131438109726e-01
8.900687845858122893e-01
8.830486482628211453e-01
1.015627115315846707e+00
1.030843004226931425e+00
1.040529847691139764e+00
9.322657774709209866e-01
1.065011166193081671e+00
1.052637079052375357e+00
1.126946078429714726e+00
1.195556896007240022e+00
1.215710770868501100e+00
1.177796587608805012e+00
1.389001411098121475e+00
1.337190549479280177e+00
1.347376679593719873e+00
1.388600474828187048e+00
1.426298044326222980e+00
1.354428779624437862e+00
1.265363148070542954e+00
1.253649536818761456e+00
1.203338470671758254e+00
1.123880944349656907e+00
1.035344286449062512e+00
9.903963590334953215e-01
9.440269315414571150e-01
9.088869960693544137e-01
7.385474886967684505e-01
7.825642953784628375e-01
7.289918618450369481e-01
6.332299125038630683e-01
5.562566682313065947e-01
5.420296589186824887e-01
4.403700074059913039e-01
5.353365762724041632e-01
4.833980734433062643e-01
3.498593931930457646e-01
2.895743299421082440e-01
3.069773251674512982e-01
6.508833970873878494e-02
7.217005292497568995e-03
-1.521481370310054371e-01
-2.080684702507574479e-01
-2.868492960064780162e-01
-3.902478911342929790e-01
-5.495582302894761462e-01
-5.395745574628093566e-01
-7.951172823761596398e-01
-7.249028163771068511e-01
-7.963431223075054799e-01
-8.587527317316836495e-01
-9.024572972170997742e-01
-1.008589368189940716e+00
-8.795074733657318733e-01
-9.933850781576963884e-01
-9.976434482769490630e-01
-1.036490845911189007e+00
-1.071322737504514677e+00
-9.717559927372256823e-01
-1.020709738274066414e+00
-1.078230443835953789e+00
-1.241938057989387945e+00
-1.222643235797669536e+00
-1.251524157030176276e+00
-1.356510119615464083e+00
-1.363431493472793354e+00
-1.318560488713910406e+00
-1.399919864750257537e+00
-1.266059663274995639e+00
-1.243211186901255649e+00
-1.252533849628053808e+00
-1.224372375109803457e+00
-1.070816873179847972e+00
-1.081667595956970152e+00
-9.967567377042912957e-01
-8.651187671799586143e-01
-9.218502673649602297e-01
-7.614868151083489245e-01
-6.535833172947732583e-01
-6.720733433801301393e-01
-7.171205626119594445e-01
-6.451346868042380223e-01
-5.724084453204627554e-01
-4.622207518007590554e-01
-4.939565635858994552e-01
-4.000524287008043189e-01
-3.334880442956825730e-01
-2.801633126643914284e-01
-1.592381034631696612e-01
-8.872203139524824367e-03
6.360016343821377205e-02
1.930191121059868786e-01
3.205469603913160825e-01
3.018773572304139785e-01
5.873221220856010838e-01
5.913565404087753885e-01
6.538118324149830851e-01
7.323405624507783873e-01
8.391483888916793088e-01
8.188582908601412802e-01
9.266041630795451844e-01
9.477983281044837227e-01
1.010109258017380940e+00
9.288509863568289449e-01
9.774493176487529800e-01
1.083118305484312316e+00
1.021764941272972349e+00
1.026036086046951512e+00
1.204179484554476876e+00
1.118858719035518368e+00
1.203952307430089297e+00
1.299326390678537724e+00
1.347362580918850306e+00
1.239997779105207920e+00
1.367306300424175447e+00
1.343979541405422307e+00
1.405826829078869578e+00
1.378570318467457367e+00
1.319889690172239005e+00
1.283277624134544714e+00
1.255046228844034939e+00
1.131279311874161086e+00
1.095355553084262468e+00
1.133686810497251063e+00
1.016328892723691757e+00
9.835929644410346118e-01
8.150623050153740223e-01
7.563646383549320618e-01
7.848044137543492837e-01
7.507963822818241040e-01
5.731627750678071065e-01
5.351103672211539042e-01
6.029855230315047665e-01
5.002844279102345304e-01
4.540410402634926790e-01
3.482025438564498865e-01
3.317997800707986888e-01
2.360297831443405880e-01
2.096847087369376472e-01
1.207114603249803408e-01
2.447455173920894123e-02
-5.992244445777817480e-02
-1.222236848242925084e-01
-3.210918886753963974e-01
-3.889821765365641948e-01
-5.205692431956630006e-01
-6.909140288323700752e-01
-6.373725921201689459e-01
-8.127610578502310057e-01
-7.857707551625653375e-01
-8.730431442246728846e-01
-8.073543134979203062e-01
-8.600596209529649538e-01
-9.042745790218116309e-01
-8.879293569813180298e-01
-9.338187038568384057e-01
-9.895081078959923060e-01
-9.908365716424635261e-01
-1.076444344850627788e+00
-1.101429677860854772e+00
-1.181191209320105795e+00
-1.199876023237643086e+00
-1.192182816528207789e+00
-1.195876678633945867e+00
-1.283149611122174294e+00
-1.251358936297827018e+00
-1.270372093437865946e+00
-1.225904554429407600e+00
-1.312602541047541704e+00
-1.274206797061905760e+00
-1.260416315631462947e+00
-1.099219648953226436e+00
-1.099557747262495777e+00
-9.872518660065989771e-01
-9.659842768202746566e-01
-8.724457820892035365e-01
-8.539536930805418091e-01
-6.417887425999367901e-01
-7.360813507945445089e-01
-6.541028820535524924e-01
-5.833333593797010996e-01
-6.271477587488685224e-01
-5.487833036909179896e-01
-4.341353722337665810e-01
-3.422845948816637396e-01
-2.990209746796734236e-01
-3.130604793899520732e-01
-1.673120339800460155e-01
-2.463041595777173409e-01
-1.123752706101761867e-01
8.622548918287145647e-02
2.490127350120086569e-01
2.476455369919033367e-01
4.348106791992545350e-01
4.669107681697650114e-01
5.912361244128384596e-01
6.989375902424588283e-01
7.084259277409440392e-01
8.112978206693721717e-01
8.770956888696015419e-01
8.691228107730717412e-01
9.946107313058820676e-01
9.823789335492301156e-01
9.760034174540771490e-01
9.665480568040477616e-01
1.010826967656881958e+00
1.067206710570252959e+00
1.031764291684398982e+00
1.197871983550668595e+00
1.071931735623863569e+00
1.210978613797357051e+00
1.240924827636749939e+00
1.351277718931956695e+00
1.305231430081927435e+00
1.336863106191892747e+00
1.386063654514060106e+00
1.499210413148238885e+00
1.389165322665205426e+00
1.342961363288528442e+00
1.370230230011231454e+00
1.263791931434882887e+00
1.246903466454602594e+00
1.117894478506559430e+00
1.122933447138840801e+00
1.021875481865351487e+00
8.932357260136360999e-01
8.255494506471977578e-01
7.505572559637809782e-01
7.792470474728447893e-01
6.481165183694741483e-01
5.777227498316774845e-01
7.863989648305305113e-01
6.036812103792367212e-01
4.814382618406116143e-01
4.374877329972735041e-01
4.628091183903819128e-01
3.899125798211394156e-01
2.500352925889550715e-01
2.073905816613058062e-01
1.757675604384771884e-01
2.780920316873710524e-03
-1.009208709292668260e-01
-1.701850475213275427e-01
-3.173526066094821130e-01
-4.676212671173218816e-01
-5.273607592896794038e-01
-5.669073211221744568e-01
-6.955469943563028501e-01
-6.968062760771324138e-01
-7.600723113289635791e-01
-8.606418661220667232e-01
-7.364716877995477473e-01
-8.619245433601814277e-01
-9.617393569970407174e-01
-9.952771646356014523e-01
-9.900412974006116418e-01
-9.073682100040403320e-01
-9.928141343035256083e-01
-1.105348517058199365e+00
-1.156702941604119017e+00
-1.146393619827040355e+00
-1.136043526975558215e+00
-1.385341341111306690e+00
-1.241598893606966181e+00
-1.302234328587769552e+00
-1.314545224868444162e+00
-1.254535396433193117e+00
-1.314807956569236325e+00
-1.234052368867355254e+00
-1.173716911189307988e+00
-1.193154498395242014e+00
-1.114617626359218461e+00
-1.109274610309152864e+00
-1.017453797633119050e+00
-8.795395966844645752e-01
-8.305074382564968660e-01
-7.410725715263140057e-01
-7.270129009993232527e-01
-7.345905414184485949e-01
-6.600803854278272098e-01
-5.621009535189916972e-01
-5.568002862429144439e-01
-4.762464734090561813e-01
-3.780116313118384030e-01
-3.726364106978865554e-01
-3.974044070193335498e-01
-3.545775694451220872e-01
-2.110248380044454086e-01
-1.394257774014859841e-01
2.589718438443872062e-02
9.566361997628020086e-02
1.089440838014447688e-01
2.594440219904147193e-01
4.420816039496405780e-01
4.544641730741399432e-01
6.121616448901027185e-01
6.122129573611146958e-01
7.711233807069055590e-01
8.224498520441676508e-01
9.104965172383503447e-01
9.494346574706118425e-01
9.338482237859170310e-01
9.254710046903289467e-01
9.067589806780178563e-01
1.064839623082007192e+00
1.100553942483039505e+00
1.216917943361477406e+00
1.088197549809930553e+00
1.052004995138031251e+00
1.204702597656233110e+00
1.196662773590219997e+00
1.343935534616394367e+00
1.289967390055005492e+00
1.409573272590632698e+00
1.445003254754273492e+00
1.375285971334446522e+00
1.398995821982060406e+00
1.413046013704529980e+00
1.451112566104316492e+00
1.301207873832996409e+00
1.318158569743487440e+00
1.261313646306916114e+00
1.215875797312283568e+00
1.123320673838833716e+00
1.032103438405431062e+00
9.644390784295149288e-01
8.379527721314348199e-01
7.479314789661160034e-01
8.426912040141014693e-01
7.057301797735326954e-01
7.151394863185849271e-01
5.588938518101664865e-01
5.709700955965378855e-01
5.669924164144627410e-01
4.646260501592953673e-01
4.246609606961482264e-01
5.402376907858701394e-01
2.214539243409444080e-01
2.229086956104723571e-01
1.433686476658382059e-01
5.582196594058772693e-02
-8.902873390005865140e-02
-1.357089953385473557e-01
-2.724972811024740649e-01
-4.639724968973782393e-01
-4.990828222855320795e-01
-6.545022151337542837e-01
-6.663286562392397583e-01
-7.087739889924089542e-01
-7.621989091476308875e-01
-8.261956154494594085e-01
-8.556210651807192313e-01
-9.022477415931757783e-01
-8.758264210987308784e-01
-8.791460766926137982e-01
-9.248042763782077236e-01
-1.004908053214496277e+00
-1.025907739078752323e+00
-9.654695613257230358e-01
-1.046974783091176198e+00
-1.104497779812237512e+00
-1.116225439317284573e+00
-1.167884469756269139e+00
-1.259151754791071998e+00
-1.219540211818505249e+00
-1.304191114976744448e+00
-1.367796264012627550e+00
-1.293173927780872257e+00
-1.250983226309444918e+00
-1.322037774760500328e+00
-1.194192237092062570e+00
-1.120467960484495595e+00
-1.019281455171251682e+00
-1.004952869758496181e+00
-8.414916875122577800e-01
-8.280492922007300916e-01
-7.809324733279021657e-01
-7.174860702337946261e-01
-6.915466662562531619e-01
-6.004665057740018463e-01
-5.618259184006225704e-01
-5.199696794626356144e-01
-5.145951156282826400e-01
-4.940899175770940843e-01
-3.739560682531543057e-01
-4.122151261087289575e-01
-2.763064255132918201e-01
-1.874568499642136898e-01
-7.480195642869441608e-02
-4.006778699924912202e-02
1.969251777279766580e-02
1.909245175358345314e-01
2.610734190863578941e-01
4.009660462342972131e-01
5.512478297065286359e-01
6.367048179082616111e-01
6.215470572341776911e-01
8.494244785173481471e-01
8.865622068474681150e-01
9.504620032348274350e-01
1.033587967752501058e+00
1.028040314876500272e+00
9.881729256484376167e-01
1.018560670924098854e+00
1.026472386974320861e+00
1.067964785308843423e+00
1.071149061788892132e+00
1.217250299403112690e+00
1.065645532798714878e+00
1.229316286997147900e+00
1.263414340507285960e+00
1.300337356195187200e+00
1.335774883442067296e+00
1.384808051371272386e+00
1.424370671896153295e+00
1.383020363922022655e+00
1.435968488509328456e+00
1.451447464899826567e+00
1.528835567645074889e+00
1.387797275216758885e+00
1.281968939645772076e+00
1.207836854817756489e+00
1.117595802541969663e+00
1.104177032279575199e+00
9.846844885461902841e-01
9.796270063854153332e-01
8.668048727308027557e-01
8.012465679613769431e-01
7.863286052906083290e-01
7.759729577582328286e-01
7.231419361080849706e-01
5.849122497672868404e-01
5.504593914555703238e-01
5.481852503614225158e-01
5.363816436647950159e-01
4.211256409858468164e-01
3.829865228397437704e-01
3.469958415480683400e-01
3.248630843264687651e-01
1.879144673851209091e-01
9.224661931450094110e-02
-1.520095247770175129e-01
-2.248806154478898700e-01
-2.917343215498776066e-01
-4.175860630626385683e-01
-4.992375365013289601e-01
-5.916521304119759517e-01
-6.752409260549780967e-01
-7.577801506662624753e-01
-7.525400710847988117e-01
-7.963664641331733574e-01
-8.194231722532135942e-01
-8.374584765296280153e-01
-9.602880756022277309e-01
-8.811217429092342845e-01
-9.667504503111342684e-01
-9.332211880604212029e-01
-1.119998422372247893e+00
-1.030709546697448742e+00
-1.035591300321675678e+00
-1.200959782358771877e+00
-1.126100397743784454e+00
-1.219792561006347587e+00
-1.285309414776089731e+00
-1.247801496372424879e+00
-1.266085298395999370e+00
-1.306231258780439219e+00
-1.249326574580915450e+00
-1.224961840216227671e+00
-1.256913663295197381e+00
-1.203650979888014838e+00
-1.128337705362467025e+00
-1.050267331110601887e+00
-9.755105024635352118e-01
-8.678444284570835388e-01
-8.018268129455196069e-01
-7.617237697023404586e-01
-7.340916755339667032e-01
-5.508567390852632251e-01
-5.483347288889454108e-01
-4.880130474965355125e-01
-5.976041363314491539e-01
-4.894471425617912819e-01
-4.373981053893852833e-01
-3.539629667452980355e-01
-3.722309201245312948e-01
-2.596295269201864264e-01
-2.533151879806797568e-01
-2.026974097421740395e-01
1.066798488999477629e-01
1.359311344117511977e-01
1.737180920854311250e-01
3.791062597446677174e-01
5.246839804027789711e-01
5.552145728798671964e-01
6.348109401075944236e-01
7.481922340838932373e-01
7.559803509744836836e-01
7.964980336673088690e-01
9.176073556886727989e-01
8.935498861236484958e-01
9.313219116542266196e-01
9.897879961465140264e-01
1.022347955500250150e+00
1.055221864652065467e+00
1.021968103653975168e+00
1.106505702167649874e+00
1.151682210148611496e+00
1.101775634626366296e+00
1.183715891629927297e+00
1.262383069817500925e+00
1.342309318298588572e+00
1.296011599485780152e+00
1.353382975401542954e+00
1.280037675564461574e+00
1.384491033919168501e+00
1.393053670226178653e+00
1.362220371349445847e+00
1.346232574125267867e+00
1.289096623278127796e+00
1.276434718851962025e+00
1.269636261276520406e+00
1.212615060672070477e+00
1.144648748997236121e+00
1.095790747906074447e+00
1.031120708058413715e+00
8.948988427540973678e-01
8.685321921098858589e-01
7.383621354732055053e-01
6.880655277336036324e-01
6.854295427861851753e-01
7.592465115533054698e-01
5.783032666609894124e-01
5.955991847267834149e-01
4.718522470699033633e-01
3.861455080133834872e-01
3.632350598051804491e-01
3.368268580077495300e-01
2.625304378091517510e-01
9.876669924762149222e-02
1.463217394644522606e-01
-4.246412188570213020e-03
-1.776701034678955238e-01
-2.017085289304723084e-01
-5.189345135427796407e-01
-5.804203526071989305e-01
-5.417904158108473034e-01
-6.167245211397008875e-01
-6.927765930808217343e-01
-7.469958613284639615e-01
-8.212851965624805572e-01
-8.421822244899481724e-01
-8.393356771910712721e-01
-8.983375800216468754e-01
-9.313226974639996492e-01
-9.322218566611795154e-01
-9.782214302795252392e-01
-9.348482825828006160e-01
-1.061697385340030886e+00
-1.098636950706760818e+00
-1.091793521460340033e+00
-1.100566975197323938e+00
-1.139340614165553323e+00
-1.180014016651465436e+00
-1.273239743774038368e+00
-1.271241851572566528e+00
-1.262423232250134975e+00
-1.387784060147690512e+00
-1.220636728946749461e+00
-1.186775330761815184e+00
-1.114571741497411228e+00
-1.074442184699526015e+00
-1.025451207866988179e+00
-1.017839090544591540e+00
-8.837156132383064966e-01
-8.664171546443534266e-01
-7.130365932386714123e-01
-7.256889903723260371e-01
-6.982965324375924876e-01
-6.103251676510470514e-01
-5.262387859111513633e-01
-4.912653477869625696e-01
-4.663863399355320238e-01
-4.584775091641277722e-01
-3.652251933880396595e-01
-2.646039325877500570e-01
-2.044930297715417400e-01
-1.871559892438729444e-01
-1.012519207450089942e-01
3.520546189671544535e-02
1.530882909705971184e-01
8.074775741594095169e-02
2.631510801525158705e-01
4.809635854749601536e-01
4.119792397376246251e-01
6.734957269566813620e-01
7.936408294761793103e-01
8.215675851462191925e-01
7.476707605664140166e-01
9.441811579790656550e-01
8.836397822234477450e-01
8.502899813567024179e-01
1.070755177572990435e+00
1.050949679445777329e+00
1.085553901875881522e+00
1.113943204829988209e+00
1.069524182877450214e+00
1.105929027550925259e+00
1.206161100435910960e+00
1.162190179178133720e+00
1.348752640402376635e+00
1.278174299524632795e+00
1.374814756281085959e+00
1.388897456865094915e+00
1.425681489450722594e+00
1.450793485046740994e+00
1.346180943232132998e+00
1.459363020140775236e+00
1.363118581637293492e+00
1.289428708844566618e+00
1.298609298305606341e+00
1.290924453974066743e+00
1.145930014543299569e+00
1.161166568126994258e+00
1.032127870227473654e+00
9.882654830452856087e-01
1.043373145839039395e+00
8.694501927502445993e-01
8.214704375619118482e-01
7.086013639187168645e-01
7.537911285992242583e-01
6.076467431364519500e-01
6.331376866794672376e-01
5.474512033492773266e-01
6.511487537472515630e-01
4.237071837455609891e-01
4.266799706195155140e-01
2.641039270282981022e-01
3.301735797826523822e-01
2.476524444435185268e-01
1.869493797586602168e-02
-9.186674524380697426e-02
-7.768761820028444176e-02
-2.102655151328442218e-01
-4.858877857340256901e-01
-5.191632460517983105e-01
-6.013505692020170157e-01
-6.950219340762808784e-01
-6.482941810862554721e-01
-7.902494008176825790e-01
-7.933506320550759439e-01
-7.788477364550164816e-01
-8.676422865541788543e-01
-9.984046017248520144e-01
-8.567261982106427753e-01
-8.364127169668035267e-01
-8.094333982903533231e-01
-9.820894569816114306e-01
-1.047023251876969097e+00
-1.060108324416476178e+00
-1.104877972449345824e+00
-1.062576596355043090e+00
-1.194926446518646435e+00
-1.271331180234438918e+00
-1.251287988122941064e+00
-1.157472665274135615e+00
-1.316136581747449075e+00
-1.328878290058076006e+00
-1.283415722182934537e+00
-1.172217210740032600e+00
-1.084719663242694310e+00
-1.138366268532928105e+00
-1.031822996999315567e+00
-9.455548454849345141e-01
-9.316639446615545550e-01
-7.229896818904064659e-01
-7.339579068764893188e-01
-6.484186616473764930e-01
-5.768211874873101497e-01
-6.567337256370793241e-01
-4.762878401282024665e-01
-4.021835220268940581e-01
-5.173289425682999765e-01
-5.130665764992629052e-01
-3.777122586905944379e-01
-2.175314629765081331e-01
-1.758254946623709070e-01
-5.693540729738653938e-02
-9.046984275651918928e-02
1.822090446964352156e-02
1.872797734209083464e-02
1.734446541236464856e-01
3.558818613584936452e-01
5.032910107030854618e-01
5.942855830254605287e-01
6.023532000618736504e-01
7.131889827230804002e-01
8.566156922309411392e-01
7.440677236374575454e-01
9.280005823003412146e-01
9.830457707053109617e-01
1.009649586149893530e+00
9.655694256524743890e-01
1.104598590089283405e+00
1.067320176200274195e+00
1.118798924839597086e+00
1.098901940598405957e+00
1.152562552165236287e+00
1.241357576949182695e+00
1.253114801031704806e+00
1.267499900081690889e+00
1.309769891054439750e+00
1.247606254050948049e+00
1.461844161828750766e+00
1.398966106969600443e+00
1.452353022508875213e+00
1.418483463572515202e+00
1.461095465955182471e+00
1.406223754211289201e+00
1.447170653433444087e+00
1.373105476777951139e+00
1.222816545449156855e+00
1.219676783010039900e+00
1.121713269240957045e+00
1.003714966153148369e+00
1.005749714628855873e+00
9.303545506470081161e-01
7.937297638755018703e-01
8.355662447975470419e-01
7.556510723951171959e-01
7.776243807269519470e-01
7.615530961128982312e-01
6.227822499693606018e-01
5.579905040292926222e-01
4.993576696982874319e-01
5.082418373801519396e-01
3.660688262818556638e-01
3.912648937105582814e-01
2.201319772719523282e-01
2.524566786572057242e-01
6.283485949268882709e-02
-3.968521667291668997e-02
-2.022408672678364383e-01
-2.332884481425137602e-01
-3.193020150969854143e-01
-4.438049809792802836e-01
-5.638885593578902844e-01
-6.049575133483887646e-01
-6.575715304243425763e-01
-7.329775214517980642e-01
-7.755816713000370788e-01
-8.637350323016921294e-01
-8.571410358447665301e-01
-8.110042688402567812e-01
-9.186430475533813311e-01
-8.758163236443092803e-01
-8.798140956309008498e-01
-8.907721127666442529e-01
-1.058147213666478459e+00
-1.124344738461284132e+00
-1.092785688719276393e+00
-1.165702938151540247e+00
-1.134521640667026654e+00
-1.289415315301537746e+00
-1.282067176967468303e+00
-1.336160306568848322e+00
-1.292397231182210948e+00
-1.248126424824533398e+00
-1.168248149755826359e+00
-1.186638582279272436e+00
-1.101739112465298653e+00
-1.106015088956733727e+00
-9.371117717145865944e-01
-9.061901796793304653e-01
-8.296269426730104035e-01
-7.937049368520483483e-01
-7.342742259231129776e-01
-6.314883045966506181e-01
-7.629302417609807874e-01
-6.186929303343562392e-01
-6.251452631562531836e-01
-4.840175874049280624e-01
-4.228597679490639361e-01
-3.789900631369591544e-01
-3.082358928504166373e-01
-2.493190908530129035e-01
-2.472113488093121703e-01
-2.269758314811590738e-01
-1.204465635460250372e-01
3.524138411893178863e-02
1.156069667910965409e-01
2.260236246108524305e-01
3.277332449506870637e-01
3.892498373791543065e-01
5.295376755598311114e-01
6.184728554205368711e-01
7.192711709724916025e-01
8.034550075333595220e-01
8.526071784314775970e-01
9.060630164664760233e-01
9.261757810032957838e-01
9.591404556408362758e-01
9.185835797177750450e-01
1.022398656316439336e+00
1.084909661959600369e+00
1.035016906095004074e+00
1.113408533733560857e+00
1.052013933474522434e+00
1.195461054798041101e+00
1.246775157574396387e+00
1.259786204758972072e+00
1.373566862835905011e+00
1.311295322499610227e+00
1.417201910769540385e+00
1.489064491944211310e+00
1.345925055171656171e+00
1.434629569466668197e+00
1.468356536003121438e+00
1.414659883231830007e+00
1.315884851168915182e+00
1.267934823763846142e+00
1.270966451760236371e+00
1.200699537482912804e+00
1.091636432394484491e+00
1.030510060588678778e+00
9.939217640577759916e-01
9.060169066685259676e-01
8.368559486317719287e-01
8.013909188054809674e-01
8.034272327060862917e-01
7.244880304444945018e-01
6.046255844682117964e-01
5.993663167771745570e-01
5.516526246725605986e-01
6.521845716180577623e-01
6.102218970701642764e-01
4.166518552152680965e-01
3.365105052822187637e-01
3.055946360055743494e-01
2.184991352406423226e-01
4.761428353100244371e-02
8.008383030823024162e-02
-1.375243687224822209e-01
-1.951462510716451271e-01
-4.058287073494051267e-01
-4.541465554058380372e-01
-5.074664102636440299e-01
-6.456882464061776128e-01
-7.271390875924526043e-01
-6.717246748753156194e-01
-8.267332951884724945e-01
-8.854961092396221867e-01
-8.297312717851679231e-01
-8.281235816877933198e-01
-8.570766807198043624e-01
-9.508862917048304109e-01
-9.671615487051123949e-01
-9.286436594564831948e-01
-9.936837785229726272e-01
-1.094485416053654570e+00
-1.034198434267481481e+00
-1.100278300067021542e+00
-1.314428123506317103e+00
-1.242888894514364573e+00
-1.184286965410946024e+00
-1.327986546878185070e+00
-1.306611067254075609e+00
-1.312721030964875801e+00
-1.194244581807770711e+00
-1.130936364641187852e+00
-1.200002655976483368e+00
-1.049636416439361009e+00
-1.069458494106251711e+00
-9.661612630929737877e-01
-9.095993732980937052e-01
-8.094466059756550980e-01
-5.938136147033217238e-01
-6.819814224995178753e-01
-6.497091764599721708e-01
-6.155284303423099734e-01
-4.923023608645935023e-01
-4.653460752855370641e-01
-4.210437838115784204e-01
-4.274300409719734017e-01
-2.972650483250970366e-01
-3.262363244056457057e-01
-1.986997535643638402e-01
-2.149378016159576299e-01
-6.671924836526542391e-02
3.723758858310751568e-02
9.641799400358949668e-02
2.337663296833215054e-01
2.560226494878171666e-01
4.066750050251677351e-01
5.367485627894146294e-01
6.076602245568596405e-01
7.854242208803543512e-01
7.836841769000729707e-01
8.790675900479058003e-01
8.743561991795018029e-01
9.541543017917848424e-01
9.984872217003702977e-01
9.919028898017225870e-01
1.016888817423443836e+00
1.079400092718364235e+00
1.002759987895724514e+00
1.137020803434204197e+00
1.118891742907896614e+00
1.209123014611002578e+00
1.262578335708195443e+00
1.241254315911568318e+00
1.282155939869494166e+00
1.435046766887880354e+00
1.447081069290009347e+00
1.557092886105033269e+00
1.387787930981809081e+00
1.479611111676717661e+00
1.472653900193883425e+00
1.430627278245365286e+00
1.421725357603026652e+00
1.335327404208835667e+00
1.225455250918614514e+00
1.131561511388970320e+00
1.148870382619444186e+00
1.101319231381673314e+00
9.854348386238568347e-01
9.440582846676532913e-01
9.172851881788979256e-01
8.234186135976683252e-01
8.244979923635767927e-01
8.394101745502422496e-01
6.168508779602307479e-01
6.123971155211738182e-01
6.131933252508134924e-01
6.194733894145953990e-01
5.727621482119786833e-01
4.218445573077025945e-01
3.866219156870770446e-01
2.396275071683187929e-01
1.625839521765997109e-01
6.028540481929228756e-02
-7.230079569499829606e-03
-1.598983816332590902e-01
-2.621378605450980781e-01
-4.082100640842631356e-01
-4.535511800089973566e-01
-5.359756609439593200e-01
-5.510319566959555049e-01
-7.013958223153512472e-01
-7.593823039959737287e-01
-7.785302598546347541e-01
-8.126054892652182504e-01
-7.974125709484883862e-01
-8.953093588448046702e-01
-9.131415933566423559e-01
-9.678560781203753294e-01
-9.306573110647816671e-01
-1.092467142792516333e+00
-9.846981816039156454e-01
-1.036298575413822975e+00
-1.008340906786024949e+00
-1.197122744666618832e+00
-1.238800266135110295e+00
-1.223994884228023050e+00
-1.223469186620934623e+00
-1.246173246259454803e+00
-1.310802909596522792e+00
-1.213993945385034134e+00
-1.247406407533424577e+00
-1.188260431304141607e+00
-1.171903344898935995e+00
-1.067932606840327203e+00
-1.010347965091711542e+00
-9.764262828732444000e-01
-8.619596945053779047e-01
-8.520101084925646440e-01
-7.599969094859067020e-01
-7.879469328784614035e-01
-6.614120341574575290e-01
-7.360024385037980954e-01
-4.338153136030912793e-01
-5.728907477186387931e-01
-5.225701766932594472e-01
-4.311740709209436195e-01
-3.837301013575326047e-01
-2.867307403895965612e-01
-2.180494611480424116e-01
-9.201093711801874853e-02
-7.880541585491164513e-02
-8.718485384357477913e-03
1.255000240694217339e-01
2.593204411242732710e-01
4.712161130835340606e-01
4.768052378304133421e-01
5.409685719484133015e-01
6.208888080643263363e-01
6.741944936822693579e-01
7.644660930883971917e-01
8.672176302649158286e-01
9.788629120858818311e-01
9.477103831057189787e-01
9.839900403769431536e-01
9.992173967381146049e-01
1.012837245365713734e+00
1.096379389684687400e+00
1.100281163094000814e+00
1.127374893819532486e+00
1.111910439216264868e+00
1.186599139607405373e+00
1.190367838461190431e+00
1.298898834034825533e+00
1.307839139040954057e+00
1.414382150302366581e+00
1.359817893219558149e+00
1.422250376602894884e+00
1.512286811127449226e+00
1.461043648658157279e+00
1.485588525888651423e+00
1.453578881571343295e+00
1.372225325000833829e+00
1.369130237514668336e+00
1.302417487482246283e+00
1.217888084780225366e+00
1.156017999516898431e+00
1.056209286778611922e+00
9.434112459442599574e-01
9.135273495013984668e-01
8.582033429338452590e-01
8.293617258547485438e-01
8.186609931418500352e-01
6.881633920845655616e-01
7.039109897438559083e-01
6.480880809160719513e-01
5.984360771698928883e-01
5.140009750939810163e-01
4.923292000276013325e-01
3.840673560750660354e-01
3.995478704846232576e-01
2.206445629999599090e-01
1.451250154478396226e-01
2.003759948280601777e-01
-6.737402810178069745e-02
-1.460927826426239029e-01
-2.119111151771321255e-01
-3.536767122211015857e-01
-5.049161335455749633e-01
-5.761466273101495394e-01
-6.470950492709437452e-01
-7.533710301132039433e-01
-7.399880810297781997e-01
-8.025022393112507535e-01
-8.820906721608202661e-01
-7.558788160375931042e-01
-8.822760375563879487e-01
-8.523293907213049803e-01
-9.161710340371796990e-01
-1.031732540423305311e+00
-9.648496376330325530e-01
-9.053523960759179978e-01
-9.796592528133512001e-01
-1.125910713809471941e+00
-1.114028769830886390e+00
-1.227046929848287560e+00
-1.168570151122484191e+00
-1.238689785516777553e+00
-1.195660257173047691e+00
-1.258046330848490379e+00
-1.286556666034313290e+00
-1.287304584093641013e+00
-1.206791823213857251e+00
-1.247331234034343872e+00
-1.036407985302789214e+00
-1.039885089893751502e+00
-9.839000862306421791e-01
-8.084273240889243706e-01
-7.379685526286199337e-01
-7.572639865291554973e-01
-6.559866541642309645e-01
-5.841891527097341497e-01
-4.995476730070195215e-01
-5.536030900360872087e-01
-5.169548564852083361e-01
-4.455086715410257470e-01
-3.513998636977862522e-01
-4.134968206528004675e-01
-3.745425267785218448e-01
-2.812181549050131180e-01
-1.781993030685379287e-01
-1.018844495958496077e-01
2.589843772263478519e-02
-3.570814248113174383e-03
2.210992409812718162e-01
3.468206855241788289e-01
4.291268273724085369e-01
5.060202309819445965e-01
6.875965930309803076e-01
7.637381170220514104e-01
8.152519245038549744e-01
8.119636407672858880e-01
9.643370565566463659e-01
9.674872503204935414e-01
9.933259771173983399e-01
1.087948566346643497e+00
1.084518724777947529e+00
1.100212673011615960e+00
1.162030182161727376e+00
1.163480565997031313e+00
1.140258897709141239e+00
1.274160202066247471e+00
1.190075210310762355e+00
1.228186347229043518e+00
1.328231487507640196e+00
1.391220094844025867e+00
1.421700379961013505e+00
1.373891791477763302e+00
1.431410064796260651e+00
1.368736634431754196e+00
1.353436442838350517e+00
1.436817156770062720e+00
1.404684257195388364e+00
1.392179459714828260e+00
1.270803951161435075e+00
1.168722635620055517e+00
1.090227601443777283e+00
1.112039300069796344e+00
9.892229388528015477e-01
1.018593274139171667e+00
8.469188926654688254e-01
7.908521454706779474e-01
8.680337396078819934e-01
6.954436062789355333e-01
6.916810152770815900e-01
6.057022801564977410e-01
5.887496160288917535e-01
5.539328530601157485e-01
5.318818536453973067e-01
3.987812255675515227e-01
3.379346479162571582e-01
2.541037411229996601e-01
2.419757480116908610e-01
6.355434340327148490e-03
-1.444381612836807133e-02
-7.794487043311322527e-02
-3.089093477499770812e-01
-3.183724980874422794e-01
-3.906726429246495380e-01
-5.367113561205383299e-01
-5.470722571189732264e-01
-6.476862801196744401e-01
-6.558610949273562252e-01
-7.531282487490893462e-01
-7.613079562872935302e-01
-8.593182793717222268e-01
-8.130011157412389000e-01
-1.005403237404394856e+00
-8.729198850903017171e-01
-8.834558282215195790e-01
-8.675315104914619324e-01
-9.897489298815866920e-01
-1.006419199830121736e+00
-1.058602257445554473e+00
-1.151205105576849963e+00
-1.186121569519947849e+00
-1.297722339726185226e+00
-1.318306508023669998e+00
-1.224321641951121586e+00
-1.194964372624377935e+00
-1.279276561379729449e+00
-1.273772194236969080e+00
-1.211059378150036503e+00
-1.125615345745674345e+00
-1.102212646951619579e+00
-1.049076061489813583e+00
-9.341933144797298638e-01
-9.292079273566298259e-01
-8.501697826035129468e-01
-6.805769574263296207e-01
-7.449942206349698948e-01
-6.520818202210058034e-01
-5.996436546752613728e-01
-5.631951290004928445e-01
-5.140896713905818149e-01
-5.329711194704915833e-01
-3.717774184579659691e-01
-2.677935907630817347e-01
-3.388803445142573034e-01
-2.714391174156843833e-01
-2.383201642842741608e-02
8.016739117553906002e-03
-1.069096773103081766e-01
1.663083298470017513e-01
2.438157102592304337e-01
2.675798126137131083e-01
4.382485280711077014e-01
6.762126508027912486e-01
6.614106880592861559e-01
6.822831010030447896e-01
7.858246400225220585e-01
9.125602912661737731e-01
8.578890876071156857e-01
9.751253134987046822e-01
1.115384525507528091e+00
9.586676381365891730e-01
1.126510354307282302e+00
1.084685545900109682e+00
1.141278236938566781e+00
1.168383782645541435e+00
1.114337541580194824e+00
1.145996409921907544e+00
1.276718800208275439e+00
1.275854522505690980e+00
1.305483253885581618e+00
1.350887080357322523e+00
1.411772467723345859e+00
1.565222938446249046e+00
1.528941780772917980e+00
1.493393113028619545e+00
1.394865368149494689e+00
1.446656695075328791e+00
1.380162666692783757e+00
1.310739088436446709e+00
1.324702695557441245e+00
1.251887246626284034e+00
1.130544260029619164e+00
1.121738093059077679e+00
9.914374696510666052e-01
9.338440974610846546e-01
8.602978195863545396e-01
8.409158176626616576e-01
7.608251343951633050e-01
5.903262228829586622e-01
7.356686341817633146e-01
7.602615744569527489e-01
5.757318072062730385e-01
5.261327378564891744e-01
5.099282670088131075e-01
4.761729158511713300e-01
3.048904360444539274e-01
2.616696263790135313e-01
2.041126442771821758e-01
7.372296016605689450e-02
-1.144305575279087606e-01
-6.340157315634543933e-02
-2.570240797354527151e-01
-3.227145184105822961e-01
-4.654131764648222203e-01
-5.579568555810963115e-01
-6.633467800059253960e-01
-7.182395722368686286e-01
-7.922971478482196961e-01
-7.834173774338765162e-01
-7.668218322472531989e-01
-7.390636601228379732e-01
-8.348145762812518855e-01
-8.349883575092944543e-01
-8.346885008769331371e-01
-1.030084433658511323e+00
-1.022198873229441807e+00
-9.808247065650350649e-01
-1.021038427904336521e+00
-1.079622745887965696e+00
-1.146896573552579346e+00
-1.214525621499807029e+00
-1.152586154925197670e+00
-1.207419733156317010e+00
-1.263936166194219446e+00
-1.278736196516026435e+00
-1.186199540652822959e+00
-1.203618009472063655e+00
-1.221933289346226692e+00
-1.253504712041054736e+00
-1.106395350720273729e+00
-1.009984375911307852e+00
-9.824638067192633661e-01
-8.762303656852733491e-01
-8.901003937539040400e-01
-7.358200027178165570e-01
-6.516351098000194852e-01
-5.936384648346587634e-01
-5.740920279373085133e-01
-5.157852961983486750e-01
-4.450166520123181590e-01
-4.365804955370358176e-01
-4.006280174705810215e-01
-3.474268184808618765e-01
-3.189000359887403380e-01
-2.139707687117008705e-01
-1.957021426240544426e-01
-1.666818270944974562e-02
4.356705502125970270e-02
9.140360119327281541e-02
3.394015611698233403e-01
3.117980263496298865e-01
5.362361989129378337e-01
5.599260695278265310e-01
6.426783926838526284e-01
6.880558851962582656e-01
8.828388853393925872e-01
8.630898314666062277e-01
9.480639897247054027e-01
1.048034657298640093e+00
9.738545018131531394e-01
9.966872136359704593e-01
1.115963465838885949e+00
1.113870482405547424e+00
1.086572660729608009e+00
1.136432447843121585e+00
1.197412270437930193e+00
1.182615965865211560e+00
1.244230274350416332e+00
1.262577817628504961e+00
1.424301589563291559e+00
1.406170787766833463e+00
1.348962515986864563e+00
1.408419044219447080e+00
1.405797919090684189e+00
1.390607363559971832e+00
1.435023965602529650e+00
1.388803070060227851e+00
1.337992827702811249e+00
1.289581300141733777e+00
1.292690717653627086e+00
1.163971007521856560e+00
1.206524412246542388e+00
1.130205294174339903e+00
9.780362925847289057e-01
9.592337937215993371e-01
9.223154577813583721e-01
8.621228472074499161e-01
7.514983163269366440e-01
6.851694666109596765e-01
6.167709926118909447e-01
6.656901376660465663e-01
5.574594936673817891e-01
5.777437813857143611e-01
5.476976571027322160e-01
3.768352678002352407e-01
4.754026766423833372e-01
2.316340022904458118e-01
2.593696492052445235e-01
9.366244899257479550e-02
-5.882613855644445999e-02
-1.524217660368200611e-01
-3.188381358557205170e-01
-3.035396171701865153e-01
-4.154209959540509089e-01
-5.876742864017485690e-01
-5.859424278806021347e-01
-7.565251791057643338e-01
-7.339391822178691349e-01
-8.579419117448826571e-01
-8.718460050121565885e-01
-8.145663964524408884e-01
-8.963906610606313663e-01
-8.492461920797262920e-01
-9.002711333159135743e-01
-9.461943506743824006e-01
-9.962810168985259951e-01
-9.477277673327292318e-01
-1.038720109154267268e+00
-1.130484050107160243e+00
-1.165358329702550710e+00
-1.123586667968455188e+00
-1.224365550911585832e+00
-1.152573029635271640e+00
-1.299819636755104035e+00
-1.275192503053590443e+00
-1.255796241317374218e+00
-1.192081236220050577e+00
-1.238537521757216320e+00
-1.098903989259190084e+00
-1.078613968201600271e+00
-1.023911563096032040e+00
-9.510317335599176580e-01
-9.104026786965936369e-01
-8.581491981320594764e-01
-7.389456962204807855e-01
-6.875815824762196993e-01
-6.440432926907182498e-01
-5.898390455022911594e-01
-5.230411250866444650e-01
-5.076795651141710053e-01
-4.404106815554543752e-01
-3.296773071087857887e-01
-3.719915040822054930e-01
-3.124281506249201867e-01
-2.310884217955762598e-01
-1.535157973960905586e-01
-7.754556419845846926e-02
7.626149394044830221e-02
9.125203966381083276e-02
1.534338156171693723e-01
3.701735042844819246e-01
5.501215463285804574e-01
6.333726706989530886e-01
6.465384237956341984e-01
7.825531145062872840e-01
8.286797122358915413e-01
8.723328639453028499e-01
9.233140604352428893e-01
1.027859667840235192e+00
9.886979693831170479e-01
1.003941699524329101e+00
1.112269208803080778e+00
1.019009302195137412e+00
1.055979549144623553e+00
1.117054265211760544e+00
1.162119501701770696e+00
1.213473698841913473e+00
1.184403871055731861e+00
1.177233843038041572e+00
1.358236498927749336e+00
1.321343035145547518e+00
1.388988777943144015e+00
1.437650783437411706e+00
1.452683271094244333e+00
1.483809654754859153e+00
1.451898729127621746e+00
1.443414797232295488e+00
1.396918396619598157e+00
1.275993290729003027e+00
1.256086536829231104e+00
1.255968267636154767e+00
1.202438299398248533e+00
1.063350105597011153e+00
9.854679622092414881e-01
9.698161432674452520e-01
8.044980964341162943e-01
8.144021100631779753e-01
7.522000175403720235e-01
7.152843088626951173e-01
7.138743747294410413e-01
6.149619727382639178e-01
6.235698699856455640e-01
5.006200883513244326e-01
5.123158616213514538e-01
3.897350162111898331e-01
3.169373966263652753e-01
2.172969117518312454e-01
1.143850476396948007e-01
1.477899396762303447e-02
4.034718486391042358e-02
-1.341934890653524726e-01
-3.161029409522765343e-01
-3.601789228735032822e-01
-4.142350466659745489e-01
-5.995115771797658866e-01
-6.856180203164873310e-01
-7.897887213132939177e-01
-7.590785579472797417e-01
-7.857628988994140862e-01
-7.846626581571380932e-01
-8.801787101015678960e-01
-8.166820355532234954e-01
-7.699626028288221180e-01
-9.682052200985351575e-01
-9.728077962376854293e-01
-9.596139791270603681e-01
-9.632792973154031824e-01
-1.086588905982561970e+00
-1.039434119732987050e+00
-1.153144896082792359e+00
-1.216005801881299142e+00
-1.221277835459623873e+00
-1.223627443022822225e+00
-1.247752929629591945e+00
-1.257335531639911519e+00
-1.215146142593199530e+00
-1.181737751765992384e+00
-1.289146697850656276e+00
-1.128323526937598187e+00
-1.006729634137842666e+00
-9.684570054965667696e-01
-9.486286831307567669e-01
-8.401965321368974893e-01
-7.661260134427057000e-01
-7.069437595813117259e-01
-7.091181929948865426e-01
-6.791750385392962830e-01
-5.339305614610274642e-01
-4.056819751662855689e-01
-5.204019366170611338e-01
-5.095893241867586188e-01
-4.274658838211326528e-01
-3.996358963482498639e-01
-3.550414578970721990e-01
-1.670027773192052645e-01
-1.827300515198305719e-01
-1.139821276903600772e-01
-2.784341533787160206e-02
4.935857780492075575e-02
1.731268157667522067e-01
3.969542352250917672e-01
4.251768372020091613e-01
5.982168179635557470e-01
6.613484089226816520e-01
6.710539738114945640e-01
7.936487169445771706e-01
8.947950916433328183e-01
1.000376510419780374e+00
9.341958719697590618e-01
9.048547651831677641e-01
1.042485206758563265e+00
1.097143878584361021e+00
1.028386465466168298e+00
1.079237950921355660e+00
1.066491977794251644e+00
1.119886509211934111e+00
1.178366708895552062e+00
1.209084172444281791e+00
1.223982674592317244e+00
1.239249241543238789e+00
1.368756080551250864e+00
1.432640738103559297e+00
1.374296421723369077e+00
1.441144813497551302e+00
1.482281289355850129e+00
1.458120128717278474e+00
1.449785241697332028e+00
1.424978523392662844e+00
1.312758350614676939e+00
1.244100785074956583e+00
1.226457445594784090e+00
1.046609281577202788e+00
9.926408885319863984e-01
1.032533797234160167e+00
9.815101834056536578e-01
8.233538303588269214e-01
8.386998862438204139e-01
7.034048114347992708e-01
7.597784718794318159e-01
6.996098793889137246e-01
6.437501184663367848e-01
5.843368220690198234e-01
6.139425627556056586e-01
5.826406523297660289e-01
2.987878789531203672e-01
3.655025854116825124e-01
2.728645869522245415e-01
1.187757439893095401e-01
5.976927396420355504e-02
8.413564648253678280e-03
-1.258051882462737359e-01
-3.981636065869224583e-01
-3.314484634075899883e-01
-4.347217449006072765e-01
-5.757438748460096400e-01
-6.444525994646403966e-01
-6.329684965055942802e-01
-7.168375464474550096e-01
-8.106806474222261194e-01
-8.006743390720341136e-01
-8.447549342378313231e-01
-8.278162567198702471e-01
-7.906002439117434388e-01
-9.074507513257327185e-01
-9.958641266295024108e-01
-9.719325613326130764e-01
-1.031759262593474613e+00
-1.022111225274801471e+00
-1.103926601656672890e+00
-1.060547146544912556e+00
-1.288523317981598693e+00
-1.198450875376735336e+00
-1.253941797708896910e+00
-1.287072326447617598e+00
-1.302821736191582369e+00
-1.212050397673800184e+00
-1.263474236064846989e+00
-1.157024009929703112e+00
-1.148122961966146605e+00
-9.893928959606994589e-01
-1.042166883737822181e+00
-9.374422982194705600e-01
-9.635047887238377129e-01
-8.457630686610950743e-01
-7.832260261747718832e-01
-7.417655369629538864e-01
-6.758363418894740571e-01
-6.045262827476427514e-01
-5.195595067225291519e-01
-4.778114908871584077e-01
-4.793164118138332763e-01
-3.626793845944590866e-01
-3.108767130760932695e-01
-2.756739482544143804e-01
-2.575321218142472834e-01
-2.278333490170009745e-01
-8.357481546660602834e-02
3.828640192100853101e-02
4.449336526266650660e-02
1.935905483297763463e-01
3.386678935675855873e-01
3.950419042551707172e-01
5.407405115132341011e-01
6.054594241871533722e-01
7.072779406077022157e-01
6.965759826386823672e-01
8.549455237556198295e-01
8.819680614630912574e-01
9.650128006494489430e-01
9.865294437043777842e-01
1.124602441942171183e+00
1.035076568931410756e+00
1.100260641707549336e+00
1.090082641625228721e+00
1.184421291163608947e+00
1.198290036982381235e+00
1.186703028705174079e+00
1.256395539134987027e+00
1.293900661033777544e+00
1.221281091132869978e+00
1.430376407556495311e+00
1.385053640502183381e+00
1.413133799434457716e+00
1.469533521731365200e+00
1.408044725969810340e+00
1.460655958196513060e+00
1.399720226374945531e+00
1.376665459216449561e+00
1.289944187286881316e+00
1.255434441382446531e+00
1.254613982890854018e+00
1.119105459299068572e+00
1.005410727529639558e+00
9.821299285773457122e-01
9.207370487153394567e-01
8.149011440285240937e-01
7.460633103762984719e-01
7.628513172928598207e-01
7.093861351057232367e-01
5.870907449295109659e-01
6.485916718552661164e-01
6.666653235467201455e-01
4.475811377962571336e-01
4.457907154676929440e-01
3.680316591057971043e-01
3.042546636069910493e-01
1.635586200205098595e-01
1.480903783726157663e-01
7.783609953762496425e-02
1.079685579651401550e-02
-1.825349279611151732e-01
-1.534530673399083223e-01
-3.036381127825274473e-01
-3.937124257916326808e-01
-5.724411495854816456e-01
-5.812813394581062276e-01
-5.967428864127876098e-01
-8.176011605288335815e-01
-9.208205806144910133e-01
-8.865601003242482570e-01
-8.358128463825050813e-01
-9.015548202941777722e-01
-8.858541191777693502e-01
-8.885606184273532326e-01
-1.024630451805848219e+00
-9.301900016648975145e-01
-9.355719377068314468e-01
-1.101054106055867843e+00
-1.087439947481899871e+00
-1.082197400894103989e+00
-1.181902329949296337e+00
-1.178696403895890032e+00
-1.218185209536301272e+00
-1.347020198158389359e+00
-1.272816404861877304e+00
-1.284537887564537018e+00
-1.218898531519869266e+00
-1.142837281154211349e+00
-1.185445802293084050e+00
-1.176888401061749523e+00
-1.031685126810268471e+00
-1.050449657433569106e+00
-8.142715397284667755e-01
-8.557492970670579346e-01
-7.021894135590660557e-01
-7.258569997048884836e-01
-6.611012074950629591e-01
-5.955163101447376039e-01
-4.997941442554247882e-01
-5.190937695261406137e-01
-4.612683507208704681e-01
-4.259131999164941229e-01
-3.765276667860088522e-01
-1.980365125359690448e-01
-2.504919036057520754e-01
-2.098765861931391474e-01
-1.607746528013477005e-01
1.218972331771026475e-03
1.710427286775616229e-02
1.594377846478304828e-01
4.116387186147503208e-01
3.237302208876945420e-01
5.313884054619095743e-01
5.853089051762943029e-01
7.209060957505492029e-01
7.737779332515823949e-01
7.664004047538180986e-01
9.326004574465216468e-01
1.017282258285000296e+00
9.223110060411547906e-01
1.068289802353199924e+00
9.616677324304807595e-01
1.048185152786710983e+00
1.066881498465927836e+00
1.054273969578868098e+00
1.165574419052039401e+00
1.181374813538713653e+00
1.261750803989019953e+00
1.292491624950750762e+00
1.283789118019464048e+00
1.244384269242256424e+00
1.344423463104299055e+00
1.386277842708123931e+00
1.431862815290880553e+00
1.378343811933824048e+00
1.441389895687373635e+00
1.488323663193192425e+00
1.378488921078422802e+00
1.295722128436439746e+00
1.275556103910043593e+00
1.179074956860542311e+00
1.173135838892755745e+00
1.095827381567766601e+00
8.644239470285658422e-01
9.587286650527355736e-01
8.929463929440196734e-01
8.189042857992161473e-01
7.627212897090471788e-01
7.216786585566334900e-01
5.519572519049505965e-01
5.438542135731724292e-01
5.886520976430971164e-01
5.297032355214282839e-01
4.806486619334600641e-01
4.258806207906561947e-01
3.626290357305677059e-01
2.489243405428256950e-01
2.152442444657435283e-01
5.409268603099055134e-02
4.879777996821502151e-03
-1.890519769600793876e-01
-2.370823957096208912e-01
-4.305591441744434089e-01
-4.310283862259217669e-01
-6.570933949999975265e-01
-7.230858395081876111e-01
-7.978138484412233833e-01
-7.264785875507143720e-01
-8.140320616708334178e-01
-8.636675181272543966e-01
-8.177018140563098170e-01
-9.030939560171796776e-01
-8.470184116205380365e-01
-8.927989947450445385e-01
-9.443489985932563835e-01
-9.796085010338773102e-01
-9.477920294257100586e-01
-1.009689983394221890e+00
-1.082692897034991386e+00
-1.225854576520293060e+00
-1.185359846990271970e+00
-1.257365682922292338e+00
-1.225200271654133921e+00
-1.267212189859241445e+00
-1.339370765920568696e+00
-1.297876785306794289e+00
-1.273961241662839416e+00
-1.238564096880030219e+00
-1.137950134005316638e+00
-1.066763076680363076e+00
-1.028864904734676067e+00
-9.123315214875158397e-01
-9.808628353498347607e-01
-8.007090648214389983e-01
-7.742685825611655970e-01
-6.994975960894951328e-01
-5.854000692542783435e-01
-6.541153919730868793e-01
-4.829644820769172786e-01
-4.792173167864905436e-01
-4.979913002171217351e-01
-4.713712324111617447e-01
-3.162686895818892507e-01
-3.452467622438516459e-01
-2.605583696456376108e-01
-2.386423594635914136e-01
-1.485759296835219290e-01
-2.374725762353949859e-02
4.658686362711545598e-02
1.927732673703594357e-01
3.984932790694962201e-01
4.371236249359919390e-01
5.749851669166265999e-01
6.356311543233762462e-01
7.047275887473060108e-01
7.895200682471427145e-01
8.792889976919485706e-01
8.720918761731165647e-01
8.946149233934838074e-01
9.572385851033963222e-01
9.642415535795758608e-01
1.013615772718733155e+00
1.075994396014634980e+00
1.080599878893322208e+00
1.138006725774046046e+00
1.171896697866352532e+00
1.169859515617698964e+00
1.239561664447576872e+00
1.202356970746528031e+00
1.203700292438800279e+00
1.379372055531007835e+00
1.366777191964160920e+00
1.405182168961979894e+00
1.363668245821880731e+00
1.390638420558414134e+00
1.411250157519913229e+00
1.464161432778205096e+00
1.372168972393702058e+00
1.360018750585601621e+00
1.257625242804370158e+00
1.231615634575180529e+00
1.200859739223332889e+00
1.105866543062361096e+00
9.444618471751122790e-01
9.233910537763615478e-01
7.476963782496460764e-01
8.000540768148005633e-01
7.650995510058894444e-01
6.916173988567804187e-01
5.693401908354301932e-01
6.445805284684964498e-01
5.127973107195930025e-01
5.309726326225089332e-01
5.150988457145851962e-01
3.731189402895279672e-01
3.550225044590678003e-01
3.035943878275597640e-01
1.286368243231158504e-01
-7.874308018020116651e-02
-9.035075274164131032e-02
-1.976627466502104413e-01
-3.464947466972765344e-01
-3.473398115258902186e-01
-5.252124652989332843e-01
-5.612365990121733761e-01
-5.973281818123395981e-01
-7.223424910125363363e-01
-7.463580036821934049e-01
-8.166523557629694618e-01
-8.899054273197756215e-01
-8.809312448536961160e-01
-7.642472186523383559e-01
-9.851471907027887775e-01
-9.768094841240311244e-01
-8.882562837829928171e-01
-9.422952994448345887e-01
-1.046688929647142885e+00
-1.085538149581523948e+00
-1.064197803845611023e+00
-1.272308141280391602e+00
-1.152006629015634775e+00
-1.212551330546013828e+00
-1.261813769790883999e+00
-1.320136181200967540e+00
-1.222679470605575691e+00
-1.231284521340319849e+00
-1.203797161888021217e+00
-1.247229319899826994e+00
-1.145670600463236433e+00
-1.176070223386750824e+00
-9.904296316235331465e-01
-9.447787189078140635e-01
-8.297375668630653234e-01
-9.050851195856950415e-01
-7.610078703540670286e-01
-7.633545691806817857e-01
-6.271947485386533128e-01
-6.302567115917034890e-01
-6.401314313254944377e-01
-5.845888514581581985e-01
-3.917490845181650916e-01
-4.023019963203714466e-01
-3.712118523734465603e-01
-3.133504331154604583e-01
-2.567618195868072717e-01
-2.544856551809221434e-01
-1.023167769871308197e-01
8.168642670365719449e-02
1.693422403599249004e-01
2.138838989456097461e-01
3.190900161245896482e-01
3.926969553359492826e-01
5.803960867320955286e-01
5.986644393252102958e-01
7.097587366367312800e-01
8.424229006716037471e-01
8.177776984717228803e-01
8.459215139441400577e-01
9.026754228329707530e-01
9.328278271564448554e-01
9.861338004370265864e-01
1.073670745967014506e+00
1.067825061369138906e+00
1.174769647310061949e+00
1.057704320535066023e+00
1.111180021713136012e+00
1.094768021574276995e+00
1.208628663089756472e+00
1.223692887784180838e+00
1.349773079015256672e+00
1.288521121826076365e+00
1.375126174373341836e+00
1.400464709114620288e+00
1.497317506675279519e+00
1.443036327116828277e+00
1.418898555084570967e+00
1.411281513313316527e+00
1.414112059144549960e+00
1.352943935737992209e+00
1.254102296402930694e+00
1.102483287452397320e+00
1.102423182909319843e+00
1.070873264264047053e+00
8.911429955562267802e-01
7.990500731663986445e-01
8.007324640022630557e-01
7.165542550464724103e-01
7.575560269585325246e-01
7.176547133126569555e-01
6.362502595650307846e-01
6.102919262869123118e-01
5.080553899586772726e-01
4.724783751829713108e-01
2.924702871802761228e-01
4.088311311975729723e-01
3.915944547007463306e-01
1.745365034091972412e-01
1.511177466622180554e-01
4.896419929186112546e-02
-7.357490236556306351e-02
-1.289028469228058471e-01
-2.524774949683485925e-01
-3.442600964100496208e-01
-5.019705516570357462e-01
-4.754032404773244069e-01
-6.112304579268194038e-01
-7.439824606015926767e-01
-7.453366754696151286e-01
-8.737996635008555835e-01
-8.618663818334845184e-01
-8.392906627043843493e-01
-8.345679065599898028e-01
-9.317053517055539080e-01
-9.357382640943824326e-01
-9.462477599572680642e-01
-1.019932024219917688e+00
-1.064346411350679977e+00
-1.144788077262902215e+00
-1.096129760613145709e+00
-1.166379859112255835e+00
-1.247554505270167091e+00
-1.251973876524818730e+00
-1.222568898091804135e+00
-1.249980547911237139e+00
-1.370093165351024211e+00
-1.334511998190541782e+00
-1.348809580439489952e+00
-1.229317838005776542e+00
-1.242731047265336342e+00
-1.054503848588284276e+00
-1.057199287750508754e+00
-1.099545754329904090e+00
-9.321011567797199415e-01
-8.090822731816706970e-01
-7.974428134343408692e-01
-6.479734925912437049e-01
-6.008596304712665592e-01
-6.188341530641545685e-01
-6.485339863907100266e-01
-4.198537545307574614e-01
-4.940712626613220637e-01
-5.033033605131713717e-01
-3.589725876078629918e-01
-4.301492969376846665e-01
-3.566475784808291194e-01
-2.347123156890139339e-01
-1.746145461038878799e-01
-6.853506981414852692e-03
9.170504240453489220e-02
2.521784466512656531e-01
2.635119601905190345e-01
4.350664538965066663e-01
5.016970987465076970e-01
5.836719166870425468e-01
7.407869582073502990e-01
7.707338012505928759e-01
7.676271189812136075e-01
9.202849592544821711e-01
9.947561954566949138e-01
9.494501162688424589e-01
9.642331360525120409e-01
9.788143006621159437e-01
1.001153906286148976e+00
9.764640777586602871e-01
9.821011328882861546e-01
1.194324218398466808e+00
1.113451452516337037e+00
1.133890762670311858e+00
1.222966769215032112e+00
1.197879546011585417e+00
1.412833763150273647e+00
1.362193996566272158e+00
1.337040351207787081e+00
1.455641507862058370e+00
1.401901835355261694e+00
1.416737275304365440e+00
1.385300640549011364e+00
1.285141802434703884e+00
1.224112780765556074e+00
1.180866000747350375e+00
1.137297540463852119e+00
1.106140557391794399e+00
1.052324011405504356e+00
9.733358407578167615e-01
8.950222468021388211e-01
7.872473914059603395e-01
8.405849705880039657e-01
7.494567112991378233e-01
6.143221405213930009e-01
5.841245239389902810e-01
7.250415422477505256e-01
5.004268743863260482e-01
5.092595780972806185e-01
4.688016413290388429e-01
3.885507634751299011e-01
2.751780433125537995e-01
1.729694202747026621e-01
1.413031174264320344e-01
8.387498932863135526e-02
-1.026214751198323699e-01
-2.426589336562462729e-01
-3.574937625092043936e-01
-4.447024671472663004e-01
-4.795179927367053674e-01
-6.388182776605380031e-01
-6.746613652323819599e-01
-7.966537352964606633e-01
-7.901196244674708602e-01
-7.918909763882625574e-01
-9.478287894789849677e-01
-1.006379042986272676e+00
-8.903781461624594717e-01
-9.429374284774276749e-01
-9.285805935663373756e-01
-1.064628601772861005e+00
-1.086379085670259537e+00
-9.323264143792094893e-01
-1.109362606890854419e+00
-1.115476548346321373e+00
-1.116488432141156562e+00
-1.189382319372506824e+00
-1.311666669381918782e+00
-1.205163456860622873e+00
-1.325509919033619255e+00
-1.328376421321417089e+00
-1.233351851113568376e+00
-1.295735913308263099e+00
-1.287251923002247889e+00
-1.141153051017420150e+00
-1.138026649689166447e+00
-1.089463050452738280e+00
-9.687248944351928293e-01
-1.003562957582727400e+00
-8.541359950425368996e-01
-8.387354112536484774e-01
-7.781019967032178908e-01
-6.720350677766649961e-01
-5.747224725925673683e-01
-6.526893140502708635e-01
-5.009962121539119906e-01
-5.399596535940860420e-01
-4.431053570986339118e-01
-4.746730406932066493e-01
-2.502898385812382109e-01
-3.670498612825181528e-01
-1.888827246389675196e-01
-7.861914223247548628e-02
-4.000369842910773965e-02
6.257058011450643276e-02
1.765330789825988456e-01
2.917919975778487385e-01
4.147389873731888166e-01
5.509408261862283052e-01
5.047209718733265404e-01
7.229751902772386662e-01
8.101258885214477345e-01
8.146365299160592821e-01
9.009649863386126611e-01
9.335433030892934525e-01
9.498289104816003414e-01
8.839132388860534428e-01
1.097816535554562822e+00
9.078228598149284956e-01
1.115369931716312824e+00
1.004576337735366698e+00
1.109209243609603712e+00
1.172226737071995206e+00
1.145146484310805901e+00
1.368353960701932603e+00
1.211070286479421387e+00
1.266019525308307747e+00
1.346943757409338582e+00
1.305590971973408676e+00
1.361240731512210589e+00
1.413031470742314610e+00
1.329951106180710330e+00
1.285088977732483873e+00
1.365418004835513122e+00
1.227562572347118852e+00
1.168899099627235039e+00
1.172447356831144871e+00
1.134401855404989501e+00
9.668868163153042650e-01
9.463220534289539243e-01
8.780148740594099221e-01
7.998778158435791985e-01
6.680152975374169522e-01
7.243865814980525730e-01
6.760834421947116146e-01
5.944493571627341710e-01
6.132983315398267132e-01
5.162462281966904154e-01
4.279038528173018663e-01
4.278775417162411498e-01
3.094031049029356550e-01
3.390140913920374199e-01
2.223060591035828648e-01
-8.681166708208037930e-04
-2.354879400027619363e-03
-5.907873453994418045e-02
-1.739846465545944465e-01
-2.984150296631076782e-01
-4.318001892594098279e-01
-5.381324631488968446e-01
-6.484644277456864669e-01
-6.228250177908614127e-01
-7.041350542932057754e-01
-7.670018811849095286e-01
-7.888413707055503821e-01
-8.476552760888362847e-01
-9.291765570732376522e-01
-9.149694186142858232e-01
-9.237759360339394821e-01
-9.994665180254691528e-01
-8.493716512129669827e-01
-1.079447055509556330e+00
-1.071089686373274619e+00
-1.089274272655391895e+00
-1.155523737708647358e+00
-1.095997871632677922e+00
-1.220676456179391023e+00
-1.223606252693490770e+00
-1.247101405087675419e+00
-1.297088725666378339e+00
-1.310090194822803644e+00
-1.313761221431232196e+00
-1.319105005001080855e+00
-1.330659114311604885e+00
-1.220988531186673942e+00
-1.110298119127375749e+00
-1.137992922089150039e+00
-1.057167240563643640e+00
-9.506522865079614082e-01
-7.787507036627513424e-01
-7.592764163374366992e-01
-7.438766108360425067e-01
-7.379485929431235380e-01
-7.171391807721537726e-01
-5.785288177191251213e-01
-4.708257482094179158e-01
-5.345217317223359688e-01
-4.421615095263270456e-01
-4.316174842763800257e-01
-3.602316318465875189e-01
-2.636748011494121080e-01
-2.802828475007052567e-01
-2.339299535734541968e-01
-2.584677382226427053e-02
3.002074682806494393e-02
1.904833676549033128e-01
3.375643321467793334e-01
5.166088651003423182e-01
4.527634710086457237e-01
4.476252953251995681e-01
7.412951822752786857e-01
7.794907809922185793e-01
7.806153545446768982e-01
8.372792003333258126e-01
8.577497198805801304e-01
9.278199084845968336e-01
9.797075113784813327e-01
9.042133616519003603e-01
1.043349558885039663e+00
1.070642187374988064e+00
1.091413808672799135e+00
1.153630368271735929e+00
1.016858097957057172e+00
1.264537556226365878e+00
1.210458718255229993e+00
1.277482936494839016e+00
1.218725932941318923e+00
1.316386699776833868e+00
1.337787435538407843e+00
1.502566517924629697e+00
1.380194445233858591e+00
1.291264917093534859e+00
1.369518634956333303e+00
1.353634431315327458e+00
1.303982978633071221e+00
1.141070386775670187e+00
1.200847302173019937e+00
9.906540622537107765e-01
1.080188531665181362e+00
9.360802813701656344e-01
8.214757788930140414e-01
7.899689692287236165e-01
7.009156929816677817e-01
7.287918419300545292e-01
7.033269134490839347e-01
6.371298504172053789e-01
5.324622301730769225e-01
4.875216189490443885e-01
4.161245649743721131e-01
3.496122627161003527e-01
3.931919253656559476e-01
2.411765154909776276e-01
1.308691025272372133e-01
8.239697791473599153e-02
-8.867727284656387599e-03
-9.535584237607973301e-02
-2.624971864713953051e-01
-2.972461397668235694e-01
-4.409833581364174804e-01
-6.073797366662422315e-01
-5.741306816383893175e-01
-7.624352284541425773e-01
-8.009177570524527168e-01
-8.297985453436815817e-01
-8.181208999445040986e-01
-8.775916388858894246e-01
-8.874140339697869084e-01
-9.004114625025803065e-01
-9.517348397816653982e-01
-1.013743723282913178e+00
-1.003302490812385761e+00
-1.110844952022294052e+00
-1.117029562929277020e+00
-1.096878708538423952e+00
-1.169289642731963674e+00
-1.132924937261027276e+00
-1.244309737494376344e+00
-1.243196018644501910e+00
-1.275153748352311212e+00
-1.345364613397161069e+00
-1.291446928427226082e+00
-1.294045190648740906e+00
-1.286740639599587288e+00
-1.275468230569688499e+00
-1.173827223387686303e+00
-1.102099398910645345e+00
-1.156737899959948468e+00
-1.012854069161787329e+00
-1.026698480801522706e+00
-8.733820847264083254e-01
-7.251404347865022526e-01
-8.216320841177300327e-01
-7.225402232911416478e-01
-6.468515391066349540e-01
-6.568318928854730565e-01
-5.522309657651587322e-01
-5.915102823916470465e-01
-5.077448814731535531e-01
-4.542385273872202589e-01
-2.717438901699367748e-01
-3.184053994783848651e-01
-2.308816340259115807e-01
-1.956155419039312393e-01
-1.062617140476634914e-02
1.250122259380506140e-01
1.489658077610244158e-01
3.198137251859760055e-01
3.426285520822918151e-01
4.759093154502778145e-01
6.089261356909402290e-01
7.109993173698490043e-01
7.228313992849572100e-01
8.676400437773551522e-01
7.980149529668911779e-01
8.881820211403111953e-01
8.311551746847701816e-01
1.056561353767187184e+00
1.043618761590533683e+00
9.005644796832023014e-01
1.090569458988549290e+00
1.073057511173153955e+00
1.079999182662474411e+00
1.100974985270636086e+00
1.182293499979076179e+00
1.242235104745498253e+00
1.248620864810889630e+00
1.307939819795605807e+00
1.295710775987824803e+00
1.344482613405411531e+00
1.291622283684517702e+00
1.413063748405646969e+00
1.336418131676470056e+00
1.425512982515333205e+00
1.261294347435797381e+00
1.291401338039795510e+00
1.276139234935912414e+00
1.124133869441253930e+00
1.062685880317273179e+00
9.191965944342783690e-01
8.983640521420492853e-01
8.851162157877343617e-01
7.410170492953637167e-01
7.653969489217602451e-01
6.378404299303402913e-01
5.732486809802117556e-01
6.927570991643247078e-01
5.304562394376831636e-01
5.370193203027648909e-01
4.272839059879853241e-01
3.553214377535695023e-01
2.578235806270172126e-01
2.310220162838198532e-01
1.655859475935263503e-01
9.165852176238728499e-02
-6.237016392924579766e-03
-1.821166001669076717e-01
-2.141081100793160441e-01
-3.355538533554750513e-01
-4.224850658404398773e-01
-5.832884428955467104e-01
-6.680654709352518150e-01
-7.811848252243186463e-01
-7.664361252724165574e-01
-8.527269289581120848e-01
-9.031156137625988567e-01
-9.232051525510976964e-01
-9.274605099180455170e-01
-8.057765854636187441e-01
-1.026892992003937799e+00
-1.070857464597076980e+00
-1.105634829989300849e+00
-1.011276408703575269e+00
-1.042097745032648515e+00
-1.192297379119163558e+00
-1.095354432826851632e+00
-1.214443792083472973e+00
-1.275841308845782063e+00
-1.356237128003161985e+00
-1.297096761816354249e+00
-1.274196774358513640e+00
-1.418221893225808605e+00
-1.344821964692410443e+00
-1.358695146523465791e+00
-1.286456157217945151e+00
-1.257582977741551256e+00
-1.181338775498553373e+00
-1.163062208372819262e+00
-9.700105340412790156e-01
-9.878922401083339855e-01
-9.077359373304588752e-01
-7.970018649067657224e-01
-8.545387445734913268e-01
-7.371379401618742833e-01
-6.272377260815859001e-01
-5.620995694787876973e-01
-5.513734306438493604e-01
-5.892789299499243683e-01
-5.665801910435387390e-01
-4.376268414703277654e-01
-3.364285352401662488e-01
-2.917682409471551441e-01
-2.356965175778809318e-01
-1.611356012162406537e-01
-6.770161628255229325e-02
5.710617687740078552e-02
2.009255612079351161e-01
2.930982405243024447e-01
3.807185072726356756e-01
4.591019203580492536e-01
5.570186807295618436e-01
6.512884146395000462e-01
7.832104428729700363e-01
8.592253350418764812e-01
8.859182220207262315e-01
8.862490607832497203e-01
9.459912989196627153e-01
1.003496835267594367e+00
1.016417745687950625e+00
9.914340818189096849e-01
1.045769175310362176e+00
1.024545034866952919e+00
1.038562342250370252e+00
1.084807457202390468e+00
1.140628222886039822e+00
1.090688391440059579e+00
1.139543870552559568e+00
1.285266859220445701e+00
1.255821775207946134e+00
1.307388641117604333e+00
1.367535984281796235e+00
1.368929694045170731e+00
1.326714648529974783e+00
1.297154424891044489e+00
1.279093697948063379e+00
1.231815054640042373e+00
1.118356127398080435e+00
1.106686383068351986e+00
1.018908239424637596e+00
1.069800492785867085e+00
8.445627809765753335e-01
7.809767555203115386e-01
6.761248751027302273e-01
6.581932922678795927e-01
6.366966781452092494e-01
6.356094787016824954e-01
6.247655604022049891e-01
5.570316122639444867e-01
4.286204511515898097e-01
4.088725273357606826e-01
3.939634658603741180e-01
4.877648083922937472e-01
1.563664429038324477e-01
9.531995677692137181e-02
6.665616248190135706e-02
-1.343228350103245483e-02
-1.659572628191492427e-01
-2.110703556154898963e-01
-3.583967499886138164e-01
-4.726364257288933612e-01
-5.815335380980248825e-01
-6.324588358546094913e-01
-7.050931453478248567e-01
-8.379971080325010480e-01
-8.753601478065954344e-01
-8.312081836410654123e-01
-9.283069665886487520e-01
-9.227459103972892596e-01
-9.389129332514908333e-01
-1.017740212421080814e+00
-1.090523057844562382e+00
-1.071446961253057273e+00
-1.081949044820095240e+00
-1.094016290339874020e+00
-1.167649546585290521e+00
-1.174837146445419922e+00
-1.171589742243542620e+00
-1.268216811865013671e+00
-1.342501346762969838e+00
-1.325596344437161900e+00
-1.359069650126973228e+00
-1.323592623652580125e+00
-1.446262923269225897e+00
-1.359420319219205808e+00
-1.306653549401110670e+00
-1.283955331129978505e+00
-1.131520384172289173e+00
-1.062823797674621984e+00
-9.942648605804889073e-01
-1.067161308263611108e+00
-8.978695368255930065e-01
-9.189813321001196744e-01
-7.709348492215324367e-01
-6.873121207367146601e-01
-7.566094932665259343e-01
-6.568859234306669848e-01
-6.445345379713400824e-01
-4.882108935545088069e-01
-4.946726022482632601e-01
-5.045577741907286695e-01
-4.008261274035159749e-01
-2.954263451112028593e-01
-3.178871457758283836e-01
-1.269035538269016328e-01
-4.741355959016130966e-02
-1.095174332534853967e-02
9.428766637916291549e-02
2.209309438015223670e-01
4.698899398136991978e-01
5.524721825919380880e-01
4.938876744804238106e-01
6.425204063760081574e-01
6.612277314550065732e-01
7.235585523061647262e-01
7.943237775258540356e-01
8.864248871752865577e-01
9.020767001463938506e-01
9.275815625641031792e-01
8.903640788777185122e-01
1.013790403597189194e+00
9.747606973801702379e-01
9.925262497170387332e-01
1.018208226130116634e+00
1.053074728895261547e+00
1.126263902316730903e+00
1.168835820077268384e+00
1.231341721799647182e+00
1.202450758672592546e+00
1.298611297100542794e+00
1.396496316470756005e+00
1.332811112463807790e+00
1.381331377582624143e+00
1.267590154582868500e+00
1.260651368589520871e+00
1.238851741252057881e+00
1.268704689357394333e+00
1.166953389602383595e+00
1.109429955667932344e+00
1.002440978979630914e+00
9.535563194287621780e-01
8.249833835203606025e-01
6.915929379370489016e-01
7.438056062297939697e-01
7.509744280785093373e-01
7.067729731254822623e-01
6.112938405408843145e-01
4.886582478819776476e-01
4.612795747473735219e-01
5.125592866370023426e-01
4.649526676038259199e-01
4.052344160047850474e-01
3.360702965706615641e-01
2.184504189108176231e-01
1.638514829923796434e-01
9.696864577441739741e-03
1.900765216567440463e-02
-1.903765525148534143e-01
-1.588830632135976306e-01
-3.507681422356043743e-01
-5.766459078914245584e-01
-5.056088075051595743e-01
-6.426535661054511017e-01
-6.990738336379545004e-01
-7.619914910307902245e-01
-8.998655119746753472e-01
-9.914935144837624392e-01
-9.377173178819188104e-01
-1.103258636545268123e+00
-9.352878494037929480e-01
-9.982946375994570243e-01
-9.774931201892476107e-01
-1.008262505033057144e+00
-9.811321013094526089e-01
-1.138971593860771181e+00
-1.145447538585433245e+00
-1.270866347385762429e+00
-1.221721683029451722e+00
-1.311385780581004967e+00
-1.276117647478923756e+00
-1.397268560336350607e+00
-1.396598808038822304e+00
-1.407090356257790775e+00
-1.412533149566111312e+00
-1.299229325788501033e+00
-1.326988175295156003e+00
-1.313091508941782948e+00
-1.186489071300449449e+00
-1.047345715444340408e+00
-1.069253653124144998e+00
-1.032304813685456013e+00
-8.146860402845597093e-01
-7.659054919782721793e-01
-8.043337015083747987e-01
-7.299408992223056503e-01
-7.014576674596779693e-01
-6.664966626176443976e-01
-6.831053101639732450e-01
-5.814313510344834013e-01
-5.315311650044253211e-01
-4.966220165565320421e-01
-3.580566295043794423e-01
-4.627211897534243001e-01
-3.237220434320050022e-01
-1.646189993170132093e-01
-1.123882842837240909e-01
-1.606999977633618779e-02
1.545998770972955572e-01
2.753784644646946056e-01
3.316235474663040139e-01
3.991638644266413682e-01
5.317762849307872131e-01
5.960406761943679577e-01
7.617720283006299553e-01
7.502669560764806400e-01
7.937552327571504307e-01
8.247161612185825996e-01
8.790652312053892636e-01
8.904426761836858883e-01
8.761785926677722047e-01
9.481511183962303413e-01
9.303166311835668889e-01
1.006402379373139366e+00
1.121246621155373768e+00
1.048067268770627392e+00
1.173846795008959276e+00
1.114854264895755342e+00
1.192252726469655189e+00
1.226411997256159125e+00
1.263543601255507021e+00
1.281495619277235321e+00
1.304003612954461211e+00
1.295397280974021958e+00
1.159921752450006949e+00
1.359519978670517881e+00
1.324187754450566246e+00
1.197503432172456250e+00
1.145163832942907467e+00
1.059846991764731738e+00
9.015070873555242059e-01
9.085452912884076637e-01
8.274732576104113502e-01
8.535059863055441953e-01
7.277294086315737598e-01
6.482875893320110272e-01
6.056832742108828604e-01
5.901292666427369049e-01
4.772160195722271459e-01
5.325439044822156687e-01
5.099777794014329624e-01
4.474573366455201762e-01
3.370747898010799659e-01
3.286605534473732160e-01
2.448268011223713736e-01
8.834680419614708569e-02
4.757716367192062895e-02
-2.229800273191959170e-02
-1.292510210695599904e-01
-1.494277007801892432e-01
-3.619107088078775680e-01
-4.936050056928780738e-01
-6.164168154950572243e-01
-7.189313281208601358e-01
-8.060951293901064130e-01
-7.895766050632202493e-01
-8.375468705526522006e-01
-8.548454498981392646e-01
-9.628427201532810953e-01
-9.599337142156653124e-01
-9.777334628595036881e-01
-1.038516745817245734e+00
-1.060622574740684332e+00
-1.071051830878531952e+00
-1.036797958369701567e+00
-1.144994098280173844e+00
-1.095105297017120227e+00
-1.194110443920533449e+00
-1.215970362859343901e+00
-1.229030192970639535e+00
-1.290271505045011091e+00
-1.357923806691026192e+00
-1.393396198367477634e+00
-1.478109765429833189e+00
-1.349844977429140336e+00
-1.411159822646081086e+00
-1.277018303877729855e+00
-1.273992582711534371e+00
-1.286327808298757702e+00
-1.204228907398229298e+00
-1.046578214471360901e+00
-1.023923768502156273e+00
-9.527453094913294063e-01
-8.203245097257875207e-01
-7.959279475571414686e-01
-7.517864461367746998e-01
-7.470383273196988805e-01
-6.401169417327875477e-01
-6.132850969312990674e-01
-5.639710083203453017e-01
-5.406543461359969438e-01
-5.806414876328620522e-01
-4.702990552627794862e-01
-3.844397937023062983e-01
-2.406914241707247271e-01
-1.437078705395763434e-01
-3.470444546977984046e-02
5.950763228413961242e-02
7.322443772123785055e-02
2.908391831642557768e-01
2.828802307391737325e-01
4.816244589039162527e-01
4.614864827957863014e-01
6.509872177922284564e-01
6.162842267446344557e-01
6.416159289224259155e-01
7.949696204165970226e-01
8.588932526791094313e-01
8.543957677785112281e-01
8.921705668225006214e-01
7.613286233262930303e-01
9.277782189122689704e-01
9.483929569464313314e-01
9.240781833767423015e-01
1.090981559123243683e+00
1.111726470806353451e+00
1.093822020708491438e+00
1.168445888463047311e+00
1.274075938614694703e+00
1.267682342108084725e+00
1.280650125028637953e+00
1.343065040718057768e+00
1.267557465200294331e+00
1.329313718036307712e+00
1.371745285034722261e+00
1.255892799103758062e+00
1.300985670867309096e+00
1.254895418999837364e+00
1.121626501120090325e+00
1.106746546355442673e+00
1.076087478872836956e+00
9.459162230972386620e-01
8.930532463286844358e-01
6.882339851022454269e-01
5.933950220449026869e-01
5.791629011237231506e-01
5.858487008333299606e-01
5.058393824636010505e-01
5.938186915779716246e-01
5.414277057957891381e-01
4.111338273700966828e-01
4.029760008604066912e-01
2.486045089685101628e-01
3.781141119755428992e-01
2.322062940651951346e-01
2.208506322232647312e-01
2.342633917087066225e-03
-7.624028006509106503e-02
-1.730556338651763892e-01
-3.021567565741607453e-01
-4.157689205195995719e-01
-4.872994559695061345e-01
-6.601935704593628884e-01
-7.455330788915200957e-01
-8.312162410792721667e-01
-8.023063437596478220e-01
-8.322834352766125265e-01
-8.753219623406545136e-01
-1.026878649333065496e+00
-9.511190564482258081e-01
-9.711701162089004802e-01
-1.029451701153642373e+00
-1.001664806592054147e+00
-1.128241689737284226e+00
-1.077723967505884506e+00
-1.153797762431964413e+00
-1.185853545475108906e+00
-1.259524706102310487e+00
-1.272856893364760156e+00
-1.368024481760001576e+00
-1.342608720572716630e+00
-1.381426247061142254e+00
-1.376134589591292867e+00
-1.408238541306047420e+00
-1.469633423071146305e+00
-1.334199284535096508e+00
-1.325558794366610282e+00
-1.285529412831795115e+00
-1.192862695813980967e+00
-1.112141047016355966e+00
-1.054308148354480057e+00
-1.131307539780622484e+00
-9.769769633507463524e-01
-9.056335107404021034e-01
-7.866637831592161456e-01
-7.981799333376127237e-01
-7.245731596887958759e-01
-6.463284453227009507e-01
-6.077290336439374885e-01
-6.043062955493566646e-01
-4.984598453182000899e-01
-4.489040966482493733e-01
-4.277944183295752101e-01
-3.785286428938657854e-01
-3.960886039432522931e-01
-2.297242191775276110e-01
-1.229487645544063562e-01
-7.693719892681591399e-02
1.091105313546288091e-01
2.118727909581653024e-01
3.543841217288220546e-01
3.921047262959909130e-01
5.343370283436464918e-01
6.318575235462506878e-01
6.984509165262019481e-01
7.294691931493126891e-01
7.396614389390610000e-01
8.945920568625717051e-01
8.245010762030097196e-01
9.166217982822083554e-01
8.980040082427392933e-01
9.053694672324633652e-01
9.871436445125109094e-01
9.811145191629339068e-01
9.890839122379385673e-01
1.114616384915728453e+00
1.048773979889432217e+00
1.101239422227793696e+00
1.120318746448078828e+00
1.281139298287024442e+00
1.104409548212252012e+00
1.284279574178403216e+00
1.360836974202531691e+00
1.363248100359892190e+00
1.286783713206288482e+00
1.275963908757550280e+00
1.256415346972737046e+00
1.212430388626834388e+00
1.041459482549730309e+00
1.113671320394387321e+00
9.462492653022969158e-01
8.809655319487706970e-01
7.805006485173707764e-01
7.968299393069635528e-01
6.951993026664107234e-01
7.290021005726963210e-01
5.873696627981322971e-01
5.244142828230878850e-01
5.838117133457293439e-01
5.294653426933826346e-01
4.501635498751539455e-01
4.078900112659471500e-01
2.784191201118705328e-01
3.611845594313069507e-01
2.025427498180178698e-01
2.016442687653536570e-01
-7.227197538442831082e-02
-8.855551289822688465e-02
-1.345068040467496673e-01
-2.653041348336413474e-01
-3.452082639386530594e-01
-4.988342854730161147e-01
-5.066660493370453988e-01
-6.523181256414298801e-01
-6.812982602530393006e-01
-8.222609633960465958e-01
-7.647672802053591123e-01
-9.320041201570238298e-01
-9.363199411446139209e-01
-9.408715115790229344e-01
-9.895082791690744672e-01
-1.070736638398231966e+00
-1.107552369641367163e+00
-1.149315003066713414e+00
-1.148143735123125841e+00
-1.146488376261473041e+00
-1.221324245013723386e+00
-1.240022016777001523e+00
-1.316102766291643134e+00
-1.286727816263646185e+00
-1.418254138860924218e+00
-1.337565350106463491e+00
-1.476694754973219226e+00
-1.432763590076277405e+00
-1.392318992050458837e+00
-1.381389588833613624e+00
-1.339973694908670909e+00
-1.278535603874152438e+00
-1.118253789338613524e+00
-1.117064903369917817e+00
-1.045512264354143683e+00
-9.633206657973149012e-01
-9.027967861140155925e-01
-8.832401017026005885e-01
-8.057462767127457903e-01
-7.862390137658450406e-01
-7.527935002890627780e-01
-6.501399193629735507e-01
-5.599807962362181035e-01
-5.434998526351141335e-01
-5.596391794382263862e-01
-5.520066434188922733e-01
-4.229520986056504173e-01
-3.506233793590656234e-01
-4.065254482373934497e-01
-2.594332393717254104e-01
-1.571204937820041003e-01
-8.915751391629898881e-02
-1.592593012569115674e-03
1.688552993323449714e-01
3.341679008881556223e-01
4.228458097459643628e-01
4.629539970884704037e-01
6.002423814839062954e-01
6.433975890908665285e-01
7.156511642013172469e-01
7.035374913808161157e-01
8.330054564092594926e-01
9.650265488524761848e-01
8.860201695362557306e-01
7.619857813511878852e-01
9.034014649408795838e-01
8.251160587413230996e-01
9.696118112571245895e-01
9.059190009059009396e-01
1.118327238203020046e+00
1.098450465417712074e+00
9.923472447851251488e-01
1.193539366742824681e+00
1.318878257795583764e+00
1.182749915087546677e+00
1.284186410272771139e+00
1.376863437668234935e+00
1.371378379241320111e+00
1.331605955413427633e+00
1.290269149251686898e+00
1.233563155821167268e+00
1.301994275930281164e+00
1.071090192232551974e+00
1.064748352057887981e+00
1.005292846057146861e+00
8.972687253512692251e-01
7.966971304725700698e-01
6.934804715460551883e-01
7.701338112108727652e-01
6.515577213490358899e-01
6.180312765669944142e-01
4.959462828923655864e-01
4.655327150877962561e-01
4.259285520555078364e-01
4.398315940253136880e-01
5.041645544408810409e-01
2.340181088301160339e-01
2.239392334409345819e-01
1.750386221810652232e-01
8.839008917405237475e-02
-7.267401656608221683e-02
-5.434636648262126946e-02
-2.154080799557794579e-01
-2.878997679653448882e-01
-4.555586108259242484e-01
-5.456489428195125946e-01
-5.790099094217929787e-01
-6.665636299969746048e-01
-7.828050277305295124e-01
-9.857524466611522485e-01
-8.124007606487546607e-01
-9.145725260330785922e-01
-1.039959150317187220e+00
-9.371497868122238284e-01
-1.012659400562757828e+00
-1.060792785397927540e+00
-1.109553117348129447e+00
-1.072665166145683191e+00
-1.119127716350072133e+00
-1.075064153403332501e+00
-1.189185110370765353e+00
-1.292100646077311232e+00
-1.316138318406250729e+00
-1.377556138141126540e+00
-1.354288255714807709e+00
-1.390192060910320881e+00
-1.396280234005126797e+00
-1.465029362386176093e+00
-1.483372350948302554e+00
-1.379104945070139809e+00
-1.372858096160852304e+00
-1.352700411602144381e+00
-1.193541222206840002e+00
-1.172569912774102940e+00
-1.186055290552785246e+00
-9.952535681462397754e-01
-9.816513571628230350e-01
-8.700047982533335444e-01
-8.934893896951660031e-01
-7.416614951710536197e-01
-7.231168691787540626e-01
-6.549361024174910062e-01
-6.223338525798292054e-01
-6.383800346355733568e-01
-5.935841076762063961e-01
-4.731174290323193476e-01
-4.438083064961038660e-01
-3.304045734957110625e-01
-4.026739921510731901e-01
-2.520304825476819555e-01
-1.059460048795356768e-01
-1.083241943157313425e-02
1.322804124193358022e-01
2.022081592881908862e-01
2.876181371236223305e-01
4.392134195385448692e-01
4.777852781099631851e-01
6.155689424016017597e-01
6.106792277795973778e-01
6.930007864786990046e-01
7.920118479361614172e-01
7.860045149505117124e-01
8.574189299208937465e-01
8.322113897051139908e-01
9.318581063630142491e-01
8.469271626225480798e-01
9.385593891054982985e-01
8.583134875300346689e-01
1.090763832057164429e+00
1.055694374302997396e+00
1.072083063263451930e+00
1.092860891082579666e+00
1.160899841431589641e+00
1.288636822479346522e+00
1.172533176444118475e+00
1.188593896029011443e+00
1.238134470380853003e+00
1.267464547957134036e+00
1.302892378084664404e+00
1.202262906697105782e+00
1.250632319466805420e+00
1.163154085835629070e+00
1.232380769274167953e+00
1.020874612591005759e+00
1.008361890346891609e+00
8.684332511029785318e-01
8.831374931289395214e-01
6.991252971736006128e-01
6.810229816750555942e-01
7.250726944727798884e-01
5.360664566931917507e-01
5.869368515706111511e-01
5.219467591331989897e-01
4.889879573586264350e-01
3.942947424607325946e-01
3.421665805512505987e-01
2.344644523199714836e-01
2.118940433705117088e-01
2.247600933547744262e-01
6.254210747086091926e-02
5.094005620750368529e-02
-1.374149594232919047e-01
-1.511178393410947951e-01
-3.426683672290345983e-01
-4.627333059674008098e-01
-5.160649586877494865e-01
-7.302502312798831996e-01
-7.262049664730845233e-01
-7.788452366813263250e-01
-8.732785731975343246e-01
-9.104349956712660674e-01
-1.009379295429160495e+00
-9.722768743955265691e-01
-1.053880281021251752e+00
-1.059666623147794695e+00
-1.070639913026203205e+00
-1.030492178693769301e+00
-1.047792545922477947e+00
-1.154747980294725584e+00
-1.148209434915505645e+00
-1.239401755215099765e+00
-1.215186244373001934e+00
-1.318528928219997454e+00
-1.335936019837548727e+00
-1.364689977204277538e+00
-1.446549353359845247e+00
-1.520809749556897295e+00
-1.389538203515995995e+00
-1.446373078883169017e+00
-1.356305770817080036e+00
-1.311715437899961367e+00
-1.322163443620424816e+00
-1.284399817884303241e+00
-1.226428856985912974e+00
-1.079320933857259801e+00
-1.033075314139324297e+00
-1.025919326864603853e+00
-9.763913979686481559e-01
-8.156657392359704106e-01
-7.890069142695148585e-01
-7.272700008542164474e-01
-6.910309940738401657e-01
-6.705088296411878535e-01
-6.217729226156643030e-01
-5.357002761484443987e-01
-5.423846370336455891e-01
-5.125449697599481214e-01
-4.063250911128218346e-01
-2.773072747621291301e-01
-2.399563832605106084e-01
-1.079326819410040550e-01
-6.684637550312583221e-02
4.312999373660758584e-02
1.770520849292495924e-01
3.291346174659081081e-01
4.494235088343588869e-01
4.825706610326771506e-01
4.683735370552314370e-01
6.387095899231640672e-01
6.602218018131432720e-01
7.162953921217579678e-01
8.035446225482375526e-01
7.695254407162318566e-01
9.273532110890745361e-01
8.126563002572437799e-01
8.825910517886276230e-01
9.631986744307990955e-01
8.265550989338485977e-01
9.491329150339025134e-01
9.906364692350807521e-01
1.184921454667113627e+00
1.011644215378679545e+00
1.146185889022314663e+00
1.247458020118839217e+00
1.286072877773031697e+00
1.200272413712594854e+00
1.278272198290697270e+00
1.190570897424983121e+00
1.305142161517422794e+00
1.244938252595609862e+00
1.245044057311493368e+00
1.170564360903318946e+00
1.071385951530427372e+00
9.383072466211666018e-01
9.969770794146379789e-01
8.381815261035341358e-01
8.042806274404549205e-01
7.370855080761949951e-01
6.715608922761571176e-01
5.714400368560019761e-01
5.457813790890500005e-01
6.319331423478975474e-01
4.292673007019658371e-01
5.228276169032889387e-01
3.992513848694210776e-01
3.180951023027248081e-01
3.249138300045998351e-01
2.718427199421443730e-01
2.208545767953821737e-01
8.507940422503304512e-02
1.974084300806214221e-02
-4.687387123262005961e-02
-2.004928266342848320e-01
-3.723804771897827881e-01
-4.207911022511763299e-01
-5.955146340881760647e-01
-6.324542650904169117e-01
-5.893320885079003091e-01
-8.322466706639723988e-01
-8.296086056943794418e-01
-8.394158989133131410e-01
-9.473630102505802286e-01
-1.029390880409587705e+00
-1.000868858301566577e+00
-1.085538854107195084e+00
-1.033625420971444386e+00
-1.098066957398935894e+00
-1.065102705035079200e+00
-1.196965866558121094e+00
-1.211834413041105174e+00
-1.280500960471858241e+00
-1.205418637047542152e+00
-1.368308120462742528e+00
-1.380152255251483551e+00
-1.451622148485052888e+00
-1.389153271115980637e+00
-1.386014019181155632e+00
-1.417230062000993440e+00
-1.389776612702506853e+00
-1.324100895648528953e+00
-1.324670609845642444e+00
-1.285101879715784046e+00
-1.270435192591365947e+00
-1.146510048539531645e+00
-1.158276123821963877e+00
-9.815699491753921979e-01
-9.762528945035340300e-01
-8.387502744644533825e-01
-8.541934423686365907e-01
-8.093163029321650548e-01
-7.482977607925774821e-01
-6.589520193354517774e-01
-7.028655387198137205e-01
-5.983227703782579843e-01
-4.953460728395969737e-01
-5.781424576072116128e-01
-4.714880643525407589e-01
-4.222409977211326604e-01
-3.514766810230711691e-01
-2.345034478126973576e-01
-1.848418071166164633e-01
-3.657513757799223802e-02
3.571507442085365691e-02
2.143401004625217765e-01
2.460528702990226191e-01
4.090590221835995188e-01
5.533002224255244572e-01
5.088302268993541988e-01
6.538618140103787946e-01
7.151405946634404875e-01
7.480280618580659180e-01
8.189023073416249465e-01
8.334685888271381460e-01
7.680011915961401092e-01
8.387367575803656994e-01
8.285190782729791037e-01
8.885760991194349145e-01
9.417407125254931843e-01
9.896622820782744467e-01
1.028279878841972472e+00
1.016228081737199140e+00
1.070974625253661161e+00
1.170497963667643360e+00
1.168121934078335533e+00
1.271045213907282756e+00
1.196816397911925289e+00
1.251192391252284875e+00
1.340305837747473028e+00
1.244073167228746835e+00
1.249148499011841107e+00
1.226596233532907254e+00
1.189740636583161759e+00
1.200473764021274814e+00
1.158499493684484127e+00
1.007294339883277434e+00
8.076615741202635146e-01
8.010632043424834592e-01
6.963447041282664340e-01
7.741606193800900648e-01
5.970704808049698276e-01
6.020571922548891841e-01
4.824720229038992891e-01
4.090941511386140261e-01
5.196698390821120617e-01
4.195865653598767619e-01
3.046136677730383879e-01
3.953705678327444906e-01
2.693212433025272690e-01
1.555318825006340444e-01
1.158247583627373400e-01
-5.747018584469305857e-03
-1.195435172015439779e-01
-2.423193804432481058e-01
-3.683278164265545440e-01
-4.354133465646546353e-01
-5.610122565282371632e-01
-7.026069814234698896e-01
-7.610445470202140683e-01
-8.996144708193916095e-01
-8.800368282702398792e-01
-8.393380886594208334e-01
-9.970136315072605226e-01
-9.785819114269443952e-01
-9.996417307553755460e-01
-9.937294182396982922e-01
-1.067048664363470900e+00
-1.057759391946774263e+00
-1.114974303897435348e+00
-1.122902582643590330e+00
-1.149683863647411819e+00
-1.256826869589035667e+00
-1.297364113954898590e+00
-1.315619874869273787e+00
-1.377233982247890509e+00
-1.402794466443528121e+00
-1.385896565948842252e+00
-1.447120476396653421e+00
-1.454578091778100157e+00
-1.365494866639888505e+00
-1.364747405173117212e+00
-1.420047890086016729e+00
-1.308890669995760980e+00
-1.251684617799251331e+00
-1.136604153566240116e+00
-1.046929478869837782e+00
-1.012680666493121606e+00
-9.362727350288861938e-01
-8.913885951491047344e-01
-8.669724682456459997e-01
-8.617869412502001669e-01
-7.248958629182101765e-01
-5.763771471678899028e-01
-6.888161800145262692e-01
-6.389423892321584031e-01
-4.940057554933793282e-01
-5.349255853125962634e-01
-3.899375571027069443e-01
-3.799087142099563663e-01
-3.696953464046295323e-01
-2.180987041705935436e-01
-2.215133351713265419e-01
-6.372231156656375795e-02
1.621762176652648546e-01
1.584760325774018930e-01
2.524525347789711160e-01
4.056841088719727040e-01
4.916119083766942732e-01
5.696272495660275048e-01
6.369180429504266439e-01
7.381727030325597738e-01
6.722103964673834531e-01
8.855096236674626642e-01
6.946862440046042142e-01
8.864097889172936062e-01
8.693347143649249320e-01
8.461150607258998146e-01
8.578640545655320526e-01
1.064032054796119287e+00
1.047663325805590073e+00
1.051165061238955589e+00
1.031769280557358170e+00
1.058141275866964381e+00
1.250986255530914582e+00
1.191466463102086371e+00
1.215094843818736781e+00
1.247596639328827139e+00
1.292494322464016410e+00
1.351087593714805468e+00
1.202613310760803689e+00
1.208131202590398967e+00
1.164712416611714652e+00
1.124302563171844849e+00
1.162348914624870888e+00
9.676998464613547624e-01
8.587711473089471026e-01
8.202356727688500104e-01
8.648924308180896414e-01
6.517363303435699251e-01
6.884243358380720545e-01
5.435320075473676349e-01
6.635973248110564882e-01
5.723269240485591158e-01
4.215643079832911422e-01
4.614523381723752982e-01
4.369667229420464705e-01
3.444686477070408870e-01
3.040322928912959632e-01
2.950029900326220922e-01
1.860437179372654848e-01
9.315754532750110395e-03
1.064214240165491099e-02
-4.414082496920246346e-02
-1.926627276505293307e-01
-3.773609453066699704e-01
-4.656694904472974961e-01
-5.327959724721577084e-01
-6.008724435712603507e-01
-7.997448827396360649e-01
-8.837604478065479441e-01
-9.412870909281848553e-01
-9.719859102036605414e-01
-1.009094965463300131e+00
-1.023989594844065154e+00
-9.986149841428157981e-01
-9.944931011182862601e-01
-9.894675099460242818e-01
-1.012281432613585608e+00
-1.153199235419709368e+00
-1.123187207611391347e+00
-1.137183589378808257e+00
-1.287126856721402701e+00
-1.227161269508597385e+00
-1.249141551348711410e+00
-1.368853686747372844e+00
-1.462842154518203097e+00
-1.417653398054717240e+00
-1.474024753741473237e+00
-1.409353591805478700e+00
-1.394436422194831771e+00
-1.487929713733281645e+00
-1.346019075430872958e+00
-1.304568407368209559e+00
-1.323390793983757030e+00
-1.205694453578272540e+00
-1.163818552153108365e+00
-1.097879565452030137e+00
-1.038713466631660642e+00
-9.270439580522621403e-01
-9.298639017473886437e-01
-7.887006475854864140e-01
-7.727825036331653630e-01
-6.269150283662798806e-01
-7.412862875568904109e-01
-6.270970324979723287e-01
-6.143103419099935625e-01
-4.258812613556805515e-01
-4.728661257304848653e-01
-4.591722502332601374e-01
-3.362950721097272555e-01
-3.100697289991602990e-01
-2.204913081274061937e-01
-1.226578650350678701e-01
-3.981034362399625548e-02
1.463509264477262928e-01
2.860034689132903152e-01
3.118805337180167170e-01
5.734038224548976270e-01
5.486125423708866355e-01
6.665032290704198115e-01
7.411589389113263371e-01
7.459974536899270925e-01
7.232245175292310035e-01
8.166354590547242331e-01
7.652296429866636274e-01
8.391949497098114552e-01
8.706011459692574173e-01
1.033245688142923946e+00
1.008619970718450665e+00
8.840312961649969825e-01
9.908976367131142604e-01
9.905668810321778261e-01
1.085451879821722976e+00
1.159333361292991249e+00
1.192754094868142101e+00
1.123568888811028676e+00
1.100675033581066220e+00
1.181817382892695667e+00
1.303223927682571670e+00
1.327862259356359154e+00
1.199198844403271513e+00
1.241883223569301586e+00
1.227290855963883986e+00
1.125485470561774504e+00
9.944620362684257753e-01
8.437847167154145511e-01
8.439192344616152086e-01
7.748405029837194258e-01
7.704175515325472068e-01
7.410467714129799210e-01
6.575560817719613427e-01
6.146776096042736448e-01
5.112465479626764342e-01
4.674508657033237258e-01
4.566018175290290637e-01
3.556559628737743228e-01
2.814597963652578638e-01
3.099104030596147030e-01
2.989265035804783976e-01
6.914613406616040847e-02
1.199467189058126965e-01
2.756773020409816755e-02
-1.428952101522694140e-01
-2.482744544069434567e-01
-3.628640583034095646e-01
-5.248412699082692923e-01
-6.367202189763013775e-01
-7.358801415336435614e-01
-7.248769081254278213e-01
-8.149548068810037460e-01
-8.900857338529358787e-01
-9.233899878209801404e-01
-9.677625796460418428e-01
-8.936261586387035383e-01
-1.023158492193090963e+00
-1.063963316984493090e+00
-1.030001949000092898e+00
-1.075843958782214838e+00
-1.138261663646879862e+00
-1.149123746345866559e+00
-1.241693767790406522e+00
-1.218888276803290038e+00
-1.372078276678138309e+00
-1.344689880879267996e+00
-1.310244345171801328e+00
-1.398825568405921205e+00
-1.409117071241912766e+00
-1.416622594980446515e+00
-1.450992980689558953e+00
-1.531196277045349774e+00
-1.483523502277973138e+00
-1.402344267245372089e+00
-1.372360085317734457e+00
-1.259771913679733624e+00
-1.157681818980233146e+00
-1.146640851866025157e+00
-1.031652417289241397e+00
-1.001796944457263638e+00
-9.711112784210909066e-01
-7.591812104122336313e-01
-8.396450586241757108e-01
-5.815945283417626177e-01
-7.605141796210058702e-01
-6.014077766298292493e-01
-6.735710751368129134e-01
-6.052325729295832124e-01
-5.891002270356535675e-01
-3.829663997002104026e-01
-4.486037029583248570e-01
-2.657231929022400019e-01
-3.345551097282902786e-01
-1.872641802696730640e-01
-1.038982615038884783e-01
5.837037100583328253e-02
2.082042645708662709e-01
2.837823649870595544e-01
3.612200198428993092e-01
4.617765451803428900e-01
5.318208914632187589e-01
6.430715995836843168e-01
6.473474016834792621e-01
7.186438532961729742e-01
8.806091685548935732e-01
7.965841095402246275e-01
9.121964418192580748e-01
7.978303566360344101e-01
8.134765371112347987e-01
8.410482472461848769e-01
9.165902746077205787e-01
9.919054255694653710e-01
9.074964299800264422e-01
1.137785356843231899e+00
1.030940063126559281e+00
1.193734605534513715e+00
1.200417126505326060e+00
1.255447433792772349e+00
1.264193334224628762e+00
1.158526015520334074e+00
1.206662311978668356e+00
1.184470402192710381e+00
1.252868843506063978e+00
1.195278945807092486e+00
1.059736190823020729e+00
9.895461018650762997e-01
1.046456312283424728e+00
9.477585847158195298e-01
9.119044742132991210e-01
7.719054265473093146e-01
6.868247614303921722e-01
6.451016052047421345e-01
6.474375483852146118e-01
6.229514525825087246e-01
5.244878778181830681e-01
5.076778267976134185e-01
4.123373463509302228e-01
4.345574369942444282e-01
3.648729615464872400e-01
3.062710832096334768e-01
2.259335174112143130e-01
2.384333698677587599e-01
-7.007109159246738272e-03
6.486489016703468613e-02
-9.366877838166104420e-02
-2.978516640518943381e-01
-3.031922561838392705e-01
-5.104404469014441892e-01
-6.317283544333571754e-01
-6.748569944458063796e-01
-7.424242083658921798e-01
-8.635956605594180546e-01
-9.211060003647331129e-01
-9.507830912779595689e-01
-9.986453345255819070e-01
-9.814843310931005149e-01
-1.083036076550917048e+00
-1.086014012725466493e+00
-1.043974918791520823e+00
-1.069833921050984848e+00
-1.143589879993974545e+00
-1.185896026485204535e+00
-1.205461251320562921e+00
-1.205000804561637606e+00
-1.276205428452070523e+00
-1.341014348096008169e+00
-1.364796352877432284e+00
-1.401860435726942189e+00
-1.463688412305617748e+00
-1.445340650503032620e+00
-1.386411310834966493e+00
-1.446450848749902152e+00
-1.351063435264088897e+00
-1.352322851192878650e+00
-1.348652682522409885e+00
-1.302477113170398715e+00
-1.225350057483443944e+00
-1.093444771461548060e+00
-1.109077880044508468e+00
-1.001133713479863019e+00
-9.389789935577100843e-01
-8.045819757863770239e-01
-8.064165565784664480e-01
-7.340285987282898494e-01
-6.953008152835593592e-01
-7.400247423388832679e-01
-6.645315325205631840e-01
-5.802836952287006023e-01
-5.576438188715526767e-01
-4.814779978601977373e-01
-3.363055030691373681e-01
-3.599108183077867618e-01
-2.085620694978273515e-01
-2.223278893240420717e-01
-3.706294241753110841e-02
-7.356609779189823839e-03
1.521924862993800365e-01
3.051752751091280080e-01
3.553934268823911724e-01
4.375656660731567782e-01
5.513260257756648075e-01
5.467669219961120985e-01
7.239663328941340348e-01
7.965597288889071370e-01
8.133367036699995500e-01
7.728191703953735114e-01
7.448871530388287976e-01
7.935447809167761601e-01
8.931488378122073302e-01
9.478140261980145809e-01
9.662360367587213839e-01
1.009656922089366082e+00
9.556598189111175090e-01
1.071917349070031111e+00
1.111932358647576002e+00
1.071093221408316420e+00
1.130452635047614729e+00
1.085960841224258067e+00
1.226094664726990358e+00
1.288096478017216606e+00
1.254498905922907470e+00
1.241134760444669638e+00
1.246553244480071543e+00
1.168932649782381761e+00
1.184562559338388610e+00
1.079735559647773790e+00
1.057024278502823877e+00
8.894467407905743972e-01
7.606241448793256144e-01
7.696643122171926699e-01
7.572420492134296355e-01
6.825858588725894904e-01
7.253993466455960215e-01
5.316355422580393286e-01
6.019959908546620442e-01
4.252756911069318635e-01
4.577201499239618165e-01
4.293966040517770977e-01
3.765114632391153848e-01
3.781106564778763945e-01
2.510045095633946510e-01
1.231541946833535073e-01
8.165549418591419584e-02
6.024304008091271867e-03
-9.380742478403406026e-02
-2.681927384371212697e-01
-2.874301619231472427e-01
-4.381972531202433241e-01
-4.530911058638758537e-01
-6.492716289439822708e-01
-7.711963875653594647e-01
-8.268855439489426473e-01
-8.710792653640616612e-01
-9.638676812392694693e-01
-9.040270875781222237e-01
-9.766493830606824966e-01
-9.945424314567534729e-01
-1.129697137356600489e+00
-1.070615825786391362e+00
-1.152033156911588696e+00
-1.236393820720559367e+00
-1.237496762222683788e+00
-1.203754085008086339e+00
-1.253805937473433385e+00
-1.238479256369301229e+00
-1.456966886410341777e+00
-1.412911474978889137e+00
-1.443683228155937082e+00
-1.394614527778335056e+00
-1.494619408721657106e+00
-1.538902316990600871e+00
-1.405537115560974160e+00
-1.457978158083675924e+00
-1.373155848972759552e+00
-1.331132967997301630e+00
-1.183762290937734107e+00
-1.229708831668274049e+00
-1.066773293796637212e+00
-1.134959393087871860e+00
-1.020489943377230535e+00
-9.592911136418296181e-01
-9.338977187341820363e-01
-7.576198028442113763e-01
-7.035449513633011964e-01
-7.590520766568213951e-01
-6.971379881090730146e-01
-6.543160070974208820e-01
-6.258702287624052785e-01
-5.784259062823432496e-01
-4.547260376967562356e-01
-5.107516329937185073e-01
-3.580848223001615316e-01
-1.776355740377090764e-01
-1.581873869689846002e-01
2.688249206985461603e-02
-2.225989430594449425e-02
1.495855734370153955e-01
3.384133429657970038e-01
2.620443436765594880e-01
4.136371895120800612e-01
4.947514270535202097e-01
6.073636987581397806e-01
7.012619232185705043e-01
7.399530547019042004e-01
8.595179911983230614e-01
8.027599161025217311e-01
7.970086468875184904e-01
8.017304573683274871e-01
8.449802107009019014e-01
9.163461832586683453e-01
9.369249854260811583e-01
9.165500957684895589e-01
1.107658365234093889e+00
1.050315354781957922e+00
1.162545658130458293e+00
1.098393206919973553e+00
1.065188864434253535e+00
1.206580476181518868e+00
1.283899169064325996e+00
1.266623969252482773e+00
1.304560983279325903e+00
1.230880581374343752e+00
1.255148492841585695e+00
1.231678477186725296e+00
1.094750190332724360e+00
9.631894054228617996e-01
9.897723453731118726e-01
9.066074043427625462e-01
9.126911217092520401e-01
7.487160888236976675e-01
6.718464060791552450e-01
6.225358712429113206e-01
5.551744386202727144e-01
5.282000063602769746e-01
4.711955559205470156e-01
4.611370003741059875e-01
4.327923301942150358e-01
3.735445235685146970e-01
4.104361740048282359e-01
3.278465508818045882e-01
1.004014827198300985e-01
2.245860334323617202e-01
3.477836647444004781e-02
-1.549545302874410779e-01
-9.939026856396790399e-02
-1.851185093913742252e-01
-3.974134635721793263e-01
-4.283234421904318912e-01
-6.189227608728971042e-01
-5.816398651819536525e-01
-7.735212216924050033e-01
-8.773377199256923165e-01
-8.987813645686983932e-01
-9.748482941084282150e-01
-9.559346618351747260e-01
-1.059479669309664196e+00
-1.034258850938274410e+00
-1.079848940282711611e+00
-9.392096147344419776e-01
-1.040198422335557371e+00
-1.119786542797175377e+00
-1.217066788179222758e+00
-1.233462853327555786e+00
-1.146087171457120357e+00
-1.298248484770848199e+00
-1.267428116287223405e+00
-1.310672748500251394e+00
-1.481535850501141116e+00
-1.527156354709421349e+00
-1.399373367643050869e+00
-1.460858402297701142e+00
-1.404535539566205360e+00
-1.380572192873925408e+00
-1.421244115707778866e+00
-1.276064642876677757e+00
-1.266399592998843637e+00
-1.207365152536461483e+00
-1.015249020030888571e+00
-1.114027139380201037e+00
-9.389519643822071826e-01
-1.023352994023260409e+00
-8.439927174335741800e-01
-7.612355693406781532e-01
-7.523486440002934428e-01
-7.995136588078382012e-01
-6.404140133659710354e-01
-5.661451799043747402e-01
-6.027286791641663921e-01
-5.801252270969958769e-01
-4.499974249722310526e-01
-4.621305733127849535e-01
-3.542364774713454012e-01
-2.185219273621937519e-01
-2.189875250491795655e-01
-6.783548254256319132e-02
1.064307760633872307e-01
1.215303048624141180e-01
2.272450625717918893e-01
3.547492968977394856e-01
4.959970123618648308e-01
4.854324435731397491e-01
6.588201606023119661e-01
7.506748483756137125e-01
7.709572291008236489e-01
7.902088137590594918e-01
8.800380257762646652e-01
7.984015491690867883e-01
8.657210656244824776e-01
8.999185838998718934e-01
8.969075386160241248e-01
9.273413211886871732e-01
9.087674481309552244e-01
9.133882271759584670e-01
1.008219810174481479e+00
1.075092335747936723e+00
1.077385410483776784e+00
1.147188377051664210e+00
1.209797311905627559e+00
1.242670986754815576e+00
1.173978020543397838e+00
1.243336209167140272e+00
1.207081050892634844e+00
1.256189534800501884e+00
1.220872467583972165e+00
1.125451602484994984e+00
1.165042841976705823e+00
1.029354945015919620e+00
9.208043733901158934e-01
7.949341946602231923e-01
7.624248838879971180e-01
7.227301912032338960e-01
7.249526791203779741e-01
6.494309104149931233e-01
5.348359083098112032e-01
5.648391305920037464e-01
6.192660221797524622e-01
4.135688297582306161e-01
4.769771301219369319e-01
3.350683681767763766e-01
2.853349709105305609e-01
3.099072188329841104e-01
2.935934220209590606e-01
6.890298310842389584e-02
-4.077411346431594752e-02
1.478437121219217110e-02
-1.969113104465540776e-01
-3.740867073915414287e-01
-4.623534227621673987e-01
-6.248785292866105845e-01
-7.207643270053167850e-01
-7.033586537444065367e-01
-7.625037285273233989e-01
-8.424966513537484047e-01
-8.814678115315375262e-01
-9.846123390673482412e-01
-1.017404779652569147e+00
-1.123064052727071660e+00
-1.023913948027610044e+00
-1.094762278842755343e+00
-9.893838642452164045e-01
-1.247919500029683215e+00
-1.152869956358219428e+00
-1.241365329907953674e+00
-1.181287077053703394e+00
-1.269554645526376424e+00
-1.348915221665023312e+00
-1.388664167028606844e+00
-1.498104075631517818e+00
-1.486960322355014741e+00
-1.420431391060698045e+00
-1.404479847338217180e+00
-1.461843978393930765e+00
-1.356883400648097426e+00
-1.432028138429049191e+00
-1.360708563784512659e+00
-1.215027663166050376e+00
-1.236637576432635388e+00
-1.117402455850590393e+00
-1.056720958600997129e+00
-1.005761461561506920e+00
-8.778824144795379647e-01
-8.622763780340081397e-01
-7.994304804578262758e-01
-7.744303746913028252e-01
-7.404780014979065461e-01
-6.513823520832016101e-01
-6.090973156137803324e-01
-6.211749437431701715e-01
-5.513628879950795980e-01
-4.712524405979769959e-01
-4.754804671587553044e-01
-2.994225370286589527e-01
-2.155164133214943212e-01
-1.663076326723802456e-01
1.246024509994274332e-02
1.424323779548045954e-01
2.142587855949553977e-01
1.536277702186505945e-01
4.093192062984037372e-01
4.228009153982027479e-01
6.289422918168345866e-01
5.900156683341554187e-01
6.442048372445166038e-01
6.780029711800814596e-01
7.628038328734904061e-01
8.415910906228117883e-01
7.695312232950703990e-01
8.417098271925347319e-01
9.361377967998332217e-01
8.429501355878278313e-01
9.218350306452542942e-01
9.683156053757412396e-01
9.791252012424864759e-01
9.305495803925518672e-01
1.138506656144453677e+00
1.231691397677332045e+00
1.160531704808682951e+00
1.258663975499262566e+00
1.224490079847486479e+00
1.210206569352232364e+00
1.245914763359537769e+00
1.167071186056685805e+00
1.262403122693076529e+00
1.160532166880785754e+00
1.016780439578575113e+00
1.083373695222953570e+00
9.843534336193607848e-01
9.396716146081945942e-01
9.574645869640684426e-01
7.542035144579709582e-01
7.173155034010801900e-01
7.461146910510787489e-01
6.050555697592868709e-01
5.985659213088975195e-01
4.487848631001160049e-01
5.523856969285476648e-01
4.156476828170345139e-01
3.823135057107545087e-01
3.407038468166883050e-01
2.634560331287346124e-01
2.047846952009839128e-01
1.112299542385215001e-01
1.342448617889943629e-02
-2.552076962733527965e-02
-2.034835717324117166e-01
-1.820331926233994535e-01
-3.858677005346239364e-01
-4.462660401881667349e-01
-5.558509130093129968e-01
-6.885032080171594737e-01
-7.370974102163042607e-01
-7.584824418420006431e-01
-9.042622730349455518e-01
-9.239549323303353212e-01
-1.004241701006503229e+00
-9.657221303325866923e-01
-1.096571262772379374e+00
-1.075111095939864647e+00
-1.128761921872325047e+00
-1.147169718832965923e+00
-1.049205542461070673e+00
-1.270429314592868231e+00
-1.178878973345330206e+00
-1.274293365317871185e+00
-1.233168234562587839e+00
-1.439313036043118554e+00
-1.352435541335175628e+00
-1.352111826666540617e+00
-1.476506675471841445e+00
-1.449151559362699793e+00
-1.433785769645776087e+00
-1.487292266888252890e+00
-1.366004160359445718e+00
-1.380055690156607673e+00
-1.356964368442837854e+00
-1.260589539393880854e+00
-1.121859232874362178e+00
-1.109467983532935742e+00
-1.014353688047486823e+00
-1.043275729177161715e+00
-9.877849100623264933e-01
-8.817128254224214645e-01
-7.634769108880422595e-01
-7.725274024596646694e-01
-6.582174057906927667e-01
-7.276993815460528481e-01
-4.809059164401247033e-01
-5.480535635167199660e-01
-4.847804628435825602e-01
-4.981725705801786086e-01
-3.923646599158606141e-01
-2.865124047729208367e-01
-2.164216446732853405e-01
-1.960418731273990411e-01
-4.845591062784582875e-02
6.681485828284562667e-02
3.243348154090320845e-01
2.380230980288010889e-01
4.292512213418548384e-01
5.337704346705745007e-01
4.891781137713292482e-01
4.905470246868188777e-01
7.204474564706484507e-01
7.752740125473002175e-01
7.030212174402816760e-01
7.719882972438820712e-01
8.200448924474993406e-01
8.435853737407428277e-01
7.511155629937331657e-01
1.013125972242543860e+00
8.770468632097269124e-01
8.963412444673672930e-01
1.044834262563852256e+00
9.755879891000901472e-01
9.686774643645194027e-01
1.078905539719434925e+00
1.155728401799641869e+00
1.284303998928914892e+00
1.311714303933100068e+00
1.325910712605622654e+00
1.264287397705863736e+00
1.213772268023564527e+00
1.116077707598280400e+00
1.146745496872351167e+00
1.139864147385756032e+00
1.053224934963604253e+00
1.037493642325887810e+00
9.763487172206676279e-01
8.406962072472016212e-01
8.263071289212170489e-01
6.755907675399008827e-01
6.715837309455567894e-01
6.099739752097935730e-01
5.718936375214984658e-01
5.180425864564746075e-01
5.094904675612498268e-01
3.877091198169253516e-01
4.728442171095833535e-01
3.718760911297048222e-01
2.138227068740027881e-01
2.098850854745470118e-01
2.246564555713739253e-01
1.101117789711128780e-01
-3.956030312948607269e-02
-1.451335153342633300e-01
-1.963174491930528842e-01
-4.333119981560970557e-01
-3.972969348763504827e-01
-6.274225394833178315e-01
-6.218963917553769205e-01
-7.279258884663581952e-01
-8.280099335872849187e-01
-9.346333254296850246e-01
-9.605105930810705628e-01
-9.233675405028287653e-01
-1.049995072428982823e+00
-9.317327405890146741e-01
-9.991607994963772610e-01
-1.057702367047185676e+00
-1.158249105507585197e+00
-1.104006815797556440e+00
-1.161533866458698938e+00
-1.296127971102272625e+00
-1.318430655791070327e+00
-1.251275615464670254e+00
-1.328426356311027678e+00
-1.375867918111432608e+00
-1.505837399207934801e+00
-1.462453416809344375e+00
-1.453680920046958702e+00
-1.362234463025240538e+00
-1.425811178491460884e+00
-1.376411522073284877e+00
-1.388883967194007640e+00
-1.293478367898875048e+00
-1.162756083093720028e+00
-1.114918169959440153e+00
-1.147585573563079331e+00
-1.064648388317589678e+00
-9.999599252779384218e-01
-9.496101492662578636e-01
-7.649262081504787369e-01
-8.160231960720467637e-01
-6.952082976197155872e-01
-6.812085128330644945e-01
-6.617544622471783766e-01
-6.786908595213196893e-01
-5.402689400084420557e-01
-4.936595510262619113e-01
-4.491709270091209794e-01
-3.632654393576447704e-01
-4.805118333485053905e-01
-3.068914652450975833e-01
-2.357195009464537749e-01
-1.440815941237401088e-01
2.012977043532920840e-02
2.750002072438061940e-01
2.835941651457439261e-01
2.956340236218428785e-01
5.016242257653048542e-01
5.717318165105379490e-01
6.980559038254992021e-01
7.376399966636012495e-01
7.118669229118157471e-01
7.628045139603408797e-01
7.694355190857503635e-01
9.455579227272400411e-01
8.972266910694675079e-01
9.356975204324445849e-01
9.505207627609757459e-01
9.249302091524014280e-01
9.686975442378082946e-01
1.055267975144739134e+00
1.062999561621821965e+00
1.055174730472744127e+00
1.134204006252883312e+00
1.245545257765315883e+00
1.186300863306635867e+00
1.149118222481024132e+00
1.302219414636072381e+00
1.223096044108832769e+00
1.320538870960157984e+00
1.169441855862180635e+00
1.235032823247099509e+00
1.196132433890501945e+00
1.135154832715366657e+00
1.086527850391741046e+00
9.893344647344615161e-01
8.485177866725839291e-01
7.614326445637464857e-01
7.213638488018779826e-01
5.984747796118488061e-01
6.896820877943944383e-01
6.035154876591277695e-01
5.944079545355861471e-01
3.925122000129365185e-01
3.776553844935973681e-01
4.007951760450119139e-01
3.521917476057221386e-01
3.036936119440409310e-01
1.898225942565407443e-01
1.041353861235689293e-01
4.997043828244439323e-02
3.727666423024508791e-02
-9.242740385103906386e-02
-2.983025526834646168e-01
-2.947068363847760719e-01
-4.795673349672992525e-01
-5.869815097769981449e-01
-7.070371386411842263e-01
-8.100480159978424854e-01
-9.334047226470105763e-01
-7.486035572317819575e-01
-9.279733621433973179e-01
-9.297736353574945767e-01
-1.079265604174773463e+00
-9.769015352373016103e-01
-1.047118018810744511e+00
-1.043123630645916400e+00
-1.092202248209021453e+00
-1.093301953962996009e+00
-1.124366787286031455e+00
-1.251495426661841881e+00
-1.240952903731301182e+00
-1.289452337983290287e+00
-1.268419257882993367e+00
-1.307501886257830925e+00
-1.317696011564386760e+00
-1.404286602962844022e+00
-1.417508648861980802e+00
-1.519846907143499459e+00
-1.381292130848899014e+00
-1.417490723460409052e+00
-1.381188090176120209e+00
-1.340801537944712463e+00
-1.235588248477430096e+00
-1.201265585882904663e+00
-1.086034599168712145e+00
-1.002038607354887700e+00
-1.001349046815539490e+00
-8.652081993779445757e-01
-8.637002807565332674e-01
-7.779022598659376397e-01
-7.455890324192305796e-01
-7.224366355813754970e-01
-6.265153786844284145e-01
-5.948530752322919168e-01
-5.349248784556431824e-01
-4.483865307128554467e-01
-4.317053024763530811e-01
-4.137730991608742359e-01
-3.660313131088624439e-01
-2.087282044857605712e-01
-1.792137269504723296e-01
4.995785268872209028e-02
3.134961083756412914e-02
2.205352961394971556e-01
3.124423394528053066e-01
3.834669722059290131e-01
4.477583649570745505e-01
6.523087477939605305e-01
6.414810211929263817e-01
7.398072647954674341e-01
6.732252199372877888e-01
7.813348183542146996e-01
7.969578213814277889e-01
8.489559562091588685e-01
8.283061758203286162e-01
8.797614374623426992e-01
8.948463717124381933e-01
9.299273105847047916e-01
9.830371481584303517e-01
1.105991027287082096e+00
1.065982108523827021e+00
1.141639527414119337e+00
1.123840733290979221e+00
1.141912479834904515e+00
1.225416910888386113e+00
1.293044356621591673e+00
1.201959066540702947e+00
1.279837043520861917e+00
1.258391109601621816e+00
1.270952482666203753e+00
1.180059243978084371e+00
1.239219293596076854e+00
1.043159555696206997e+00
1.115064733661509822e+00
9.861383207951136542e-01
8.157080367307043556e-01
7.997104045868677069e-01
7.946818292880446499e-01
6.334673234483617632e-01
6.279638362837912657e-01
5.605797860917431930e-01
5.182388976606613351e-01
4.628485728339360450e-01
4.618139161534963733e-01
3.162144454229942059e-01
3.730512191681385481e-01
3.420759674222902946e-01
2.273401452035457015e-01
1.657201739837683152e-01
-1.121568193408965797e-02
-1.178797704217956072e-01
-1.530123912787953455e-02
-1.549420180469826547e-01
-3.276745263794003660e-01
-4.018707416667771648e-01
-5.586146892109273843e-01
-6.410956381540187099e-01
-7.266382618267162030e-01
-8.306971901222433008e-01
-8.093525042229086086e-01
-8.872843082608840026e-01
-9.048970042744131081e-01
-9.449648515231117152e-01
-9.960805170877072845e-01
-1.056358428962913321e+00
-1.057656334839826906e+00
-1.049380589217906889e+00
-1.063409726706927350e+00
-1.174173498314731168e+00
-1.226438504977118482e+00
-1.217482274432865719e+00
-1.195358052997173903e+00
-1.320729714718742898e+00
-1.391990009557870778e+00
-1.396205303783403906e+00
-1.465421201095155057e+00
-1.398276833935831354e+00
-1.469285703753371752e+00
-1.368318326400825846e+00
-1.409385760009433719e+00
-1.337123087700664570e+00
-1.211312015494760974e+00
-1.286349279667816425e+00
-1.112834955390404446e+00
-1.046174474018897183e+00
-1.005003081925678332e+00
-9.361304458341768164e-01
-9.458964812983516879e-01
-7.251593810079336455e-01
-8.022288485452859774e-01
-7.052486284472646583e-01
-6.569475077046543765e-01
-6.740192683669155027e-01
-5.955478841135620760e-01
-4.818768412314596294e-01
-5.005711238386217898e-01
-4.861958798878083243e-01
-4.757983483542777003e-01
-2.893764540589913725e-01
-2.719826885105764425e-01
-1.075330485025343813e-01
2.147814284656508754e-02
-1.637322526561406366e-02
1.451614833695753504e-01
3.027548048886153365e-01
2.706664623465518948e-01
5.231364709211002717e-01
6.228685172818672067e-01
6.741437826156677637e-01
7.613887239536841767e-01
7.640397359719889314e-01
8.542598126214406840e-01
7.808944095706156219e-01
9.077895427133961803e-01
8.759544452080068044e-01
8.372488475754862325e-01
9.454009637732990745e-01
9.226634757138338916e-01
9.834736823117212756e-01
1.036928354152965470e+00
1.112013962842308912e+00
1.157279443360576421e+00
1.159231607932309949e+00
1.147506275339832627e+00
1.256495293987076378e+00
1.329555391554093191e+00
1.327168455813415360e+00
1.294096370694018949e+00
1.279872631711585607e+00
1.277441417691407066e+00
1.148785540109034553e+00
1.131660780988764436e+00
1.147939801290208450e+00
1.046412592810300968e+00
9.903379221666204213e-01
9.606408824834490323e-01
7.470827163724964581e-01
8.235637654992229439e-01
7.248677275254163943e-01
5.652724509278297393e-01
6.006279302444585966e-01
5.573422683432146529e-01
4.216848535778492391e-01
4.424994626946047172e-01
4.018318870810846377e-01
3.034240694906105706e-01
3.034404680456914694e-01
1.619496459059459048e-01
1.015839240723950682e-01
1.248674877736732081e-01
2.666654201064605489e-02
-8.281239012450150594e-02
-2.240914084321489197e-01
-3.355358866517824667e-01
-3.882897550078527327e-01
-5.388850418039793366e-01
-6.416318475034593627e-01
-7.839828179052850121e-01
-8.209474953291876487e-01
-8.603635020108508780e-01
-9.148499911141095842e-01
-1.036128299976039280e+00
-9.896339770054495277e-01
-1.000666582219313705e+00
-9.554457516238001880e-01
-9.819464014147112341e-01
-1.073677178518787079e+00
-1.089694948044790612e+00
-1.077110051323243223e+00
-1.212896518019463299e+00
-1.148651946987683470e+00
-1.241513105704777686e+00
-1.269707808630412771e+00
-1.355277363855852402e+00
-1.381939445278201672e+00
-1.454325146585394357e+00
-1.465302140396455233e+00
-1.458141368113138769e+00
-1.437265321659255468e+00
-1.365250341320933813e+00
-1.358881854284665014e+00
-1.277507816680422570e+00
-1.225298201648360008e+00
-1.152620293904937254e+00
-1.078055827819856649e+00
-9.914860242401509760e-01
-9.612769490080737000e-01
-8.534649895589412338e-01
-8.452825102067934582e-01
-7.408258345749980656e-01
-6.854237597489540867e-01
-6.386614695161531019e-01
-6.032379300721568693e-01
-5.771460122042905150e-01
-5.608579488684251046e-01
-4.291121003441913384e-01
-4.155863911335736516e-01
-4.383499219994739793e-01
-2.555438133245626076e-01
-1.821822031633155980e-01
-1.089220696528162835e-01
-4.132165354495954956e-02
1.367500156657059374e-01
3.613887427114684803e-01
3.345414459275731778e-01
4.800800002973594771e-01
7.183109808964205367e-01
8.400240264313043603e-01
8.996023455440356198e-01
1.007821685672103840e+00
1.127869059046728184e+00
1.307729048624097778e+00
1.283230921610189368e+00
1.317307206395515351e+00
1.392439196386015654e+00
1.381036294529631281e+00
1.356990298100740233e+00
1.552682923355281241e+00
1.468270192020229459e+00
1.510498916707617045e+00
1.454117318532110126e+00
1.475743808170495885e+00
1.506626883421743335e+00
1.506037645696570504e+00
1.501069610181041458e+00
1.399535681286652178e+00
1.402012628000555594e+00
1.314526513169057553e+00
1.231265185620884273e+00
1.168255423136457472e+00
1.118682565168285681e+00
8.924494571005163746e-01
8.867291679421938078e-01
7.468341789431123257e-01
5.997958404780227015e-01
4.747392129961645058e-01
3.563906214050822641e-01
3.361727884429883129e-01
2.436564734835415247e-01
1.627166373797387933e-01
2.247304293610397075e-02
3.609572818205908362e-02
-3.899634246735811383e-02
5.357218336526586855e-02
-3.332624075776396966e-02
-9.518609751846762723e-02
-6.670241279536570644e-02
2.622028269899351338e-02
-2.740445869853228023e-02
-1.006875462730509735e-01
-1.653416313858653286e-01
-1.982024443210606557e-01
-1.890691001587845865e-01
-3.992841551137913392e-01
-4.850772561145459960e-01
-5.649908149522564482e-01
-5.753446778971588182e-01
-6.369078348186064664e-01
-7.784323039201728189e-01
-8.634461289473254197e-01
-8.730550224702074980e-01
-9.770273571776706412e-01
-9.593632915188344823e-01
-9.968743491603698770e-01
-1.015693396522181935e+00
-1.065297232265833394e+00
-1.138951918894875126e+00
-1.061747601759939430e+00
-1.043285874343933939e+00
-1.203610453115767864e+00
-1.270575070200875789e+00
-1.266395214671352631e+00
-1.336031545420837130e+00
-1.339105466573399239e+00
-1.405480121277345340e+00
-1.366541868088471778e+00
-1.425096249714189911e+00
-1.374531299314644794e+00
-1.413262889016033030e+00
-1.432741324616187972e+00
-1.386918986447848390e+00
-1.284252911175782552e+00
-1.199701370516531806e+00
-1.015664694059024376e+00
-1.061210659974844983e+00
-9.424830446077903101e-01
-8.247854606124542798e-01
-8.297824637089713518e-01
-8.649034008799290074e-01
-7.391305556471788885e-01
-7.728981292980323659e-01
-6.694225091392086435e-01
-5.930375290705774960e-01
-6.613374219732384152e-01
-5.805752272477392451e-01
-4.355302254891035285e-01
-3.357466086824087981e-01
-3.405028384298081079e-01
-3.263875983281980808e-01
-1.405128251959498475e-01
-6.865619968428549047e-02
1.046433508296535642e-01
1.021318039584208776e-01
1.786289903166556892e-01
3.658660980216404957e-01
4.225876705726303029e-01
4.401090443373771866e-01
6.243746399198660813e-01
7.394291167136788356e-01
7.481247910528534550e-01
7.671394494840999556e-01
8.076180169626008265e-01
8.337999548409096295e-01
8.941486902039519347e-01
8.949545306568286174e-01
8.859164170548309292e-01
9.693245781275542372e-01
9.881745097159586599e-01
9.391721754505901743e-01
1.083105277814911283e+00
1.101150196983239793e+00
1.099159924610808359e+00
1.185030846347278510e+00
1.199547775174617081e+00
1.252306992566916355e+00
1.308849943548107353e+00
1.287067785579726786e+00
1.371934279405032875e+00
1.287562736372816152e+00
1.195384976400621246e+00
1.205193774603466883e+00
1.252146082299825824e+00
1.202330913879353869e+00
1.165523657655487488e+00
8.578022214049680905e-01
9.542214502945671750e-01
8.343066486057896247e-01
7.528053857119078041e-01
7.608680259767129916e-01
6.078627478590687971e-01
5.891797665343415646e-01
5.591808270202426323e-01
5.407855204608935651e-01
4.785467648831370768e-01
3.869251070030405582e-01
4.400207630281238180e-01
3.472380030651293081e-01
2.881632394388860541e-01
1.957027317957801549e-01
3.796356805709105720e-02
2.809735993498421736e-02
-1.357491029693455309e-01
-2.256238200536107852e-01
-3.840560357931745439e-01
-5.164613626284139114e-01
-5.057068527176139527e-01
-6.033434549252391088e-01
-6.808590402636826022e-01
-8.183705116852557637e-01
-9.718983748380096710e-01
-8.047875843375017491e-01
-8.909154531306614500e-01
-9.650579542197847971e-01
-1.049715488403871966e+00
-1.020436204366644839e+00
-9.210127972632404791e-01
-1.004050657227331778e+00
-1.139307741717347611e+00
-1.077601748820790073e+00
-1.196570234168080171e+00
-1.169290113134685560e+00
-1.254237049101874168e+00
-1.270482823166338093e+00
-1.407182155352890263e+00
-1.382321967105073712e+00
-1.431325602019816401e+00
-1.360352189107958187e+00
-1.435973410507201065e+00
-1.301415024862095260e+00
-1.348730912242356084e+00
-1.288477449073041958e+00
-1.271581324601253504e+00
-1.193826868096944605e+00
-1.093602568226561766e+00
-1.009235964566547628e+00
-9.736399478155457476e-01
-8.906896305077964815e-01
-7.899508780632802374e-01
-8.973042235574379966e-01
-7.028564162993151676e-01
-7.137083016295665550e-01
-6.202049142232868295e-01
-5.457100298998360799e-01
-5.683367984438808529e-01
-4.781909584309504968e-01
-5.662151989528927398e-01
-4.469562832931086582e-01
-4.194071605188774976e-01
-3.424298494287033590e-01
-2.023041722605728454e-01
-5.240398728231329684e-03
3.065859424633969252e-02
1.246024953241195443e-01
1.500799289709072448e-01
3.718696072675342634e-01
3.713759056078925203e-01
5.241273700112862866e-01
5.876008573772896204e-01
6.655301576164410760e-01
