2.158196993120267970e-01
3.465338418668036935e-01
4.082849678330507937e-01
4.075470798470653966e-01
6.186646369970980608e-01
6.667675917930238061e-01
8.062688936142464735e-01
7.839180544702146758e-01
8.447870468256719612e-01
8.296209990723695249e-01
1.010802579708663274e+00
1.028464338310460136e+00
9.733584999535838111e-01
1.001627009972043680e+00
1.081931134890856461e+00
1.023640134118851908e+00
1.032467842456348706e+00
1.025958003012806152e+00
1.226405971130882788e+00
1.278333727470906567e+00
1.352036423327521941e+00
1.332145812889690140e+00
1.346129540570996763e+00
1.334993777140497828e+00
1.405798653291059130e+00
1.402136578880833762e+00
1.346894166539704729e+00
1.274897313095918028e+00
1.143358304231739009e+00
1.144814808999623290e+00
1.128560969639904155e+00
1.128693280722891101e+00
8.854098520586975996e-01
9.533721020515663058e-01
8.255405295824089773e-01
7.550143422585250397e-01
7.569958890743144764e-01
6.836561467299770989e-01
5.908489396066909372e-01
5.751933946697944666e-01
6.018612318348880441e-01
4.644755261965083371e-01
4.096416168076155717e-01
3.734368861790184346e-01
4.308733652992485230e-01
3.576539651679481735e-01
1.877826812935605161e-01
-1.312880295585676371e-02
8.419475125831087786e-03
-9.237430891806923394e-02
-3.284618223019871719e-01
-3.043095136272636059e-01
-4.242801722838816514e-01
-5.622545703574384213e-01
-6.484355309817559920e-01
-7.003645426716064160e-01
-7.887780300757217811e-01
-8.146975676014965861e-01
-7.964845407973103475e-01
-8.571704294480908537e-01
-9.376135312728430815e-01
-8.901481352470018704e-01
-9.954738910365623639e-01
-9.757446603706282362e-01
-9.999833053414183270e-01
-1.075704121286805037e+00
-1.017604718914417283e+00
-1.138198817888301351e+00
-1.096779609359045615e+00
-1.227006272147295851e+00
-1.339553848548417969e+00
-1.329735105030390718e+00
-1.410587764686515033e+00
-1.326423450411121641e+00
-1.335302577756599662e+00
-1.385655104163127760e+00
-1.345307190096798333e+00
-1.311450339793035047e+00
-1.234788347946200515e+00
-1.192908363244811865e+00
-1.037319363661584948e+00
-1.085722889975855532e+00
-9.147352983190518705e-01
-9.872404357624080529e-01
-7.665539280168633951e-01
-8.176868114304901569e-01
-7.316967945738909185e-01
-6.011824951797603012e-01
-6.256007207186803365e-01
-5.075455237873464087e-01
-6.465719735618538078e-01
-4.511361296652152686e-01
-5.396935025810545294e-01
-3.616962399091820379e-01
-3.464857730300103800e-01
-2.315446295272611255e-01
-2.249726261740989108e-01
-1.437664878468842278e-01
6.904856820821576868e-02
2.221354352478026040e-01
1.944291838055365040e-01
3.274057344538540693e-01
5.462207409336136132e-01
5.767118900690846317e-01
7.131137382726110419e-01
7.179533298381238771e-01
7.955061793266930970e-01
8.554469758354436015e-01
8.080104638022229668e-01
9.482146247251451721e-01
8.755587263543053167e-01
9.626281067744560938e-01
9.767765325557763445e-01
9.559792439819262411e-01
1.066985215506590867e+00
1.124191433527875095e+00
1.073572622782169361e+00
1.216079013630358086e+00
1.087899783742109383e+00
1.267948384428057684e+00
1.270295889032359904e+00
1.416411303778795538e+00
1.347617133395223377e+00
1.381284546103545674e+00
1.374357499164250873e+00
1.373563791495273190e+00
1.345572452819092435e+00
1.318707802744801372e+00
1.351602777635693586e+00
1.221594056146175333e+00
1.120736345588525085e+00
1.085853215843406216e+00
1.043053755357813639e+00
9.953358179129694339e-01
8.989440752645533328e-01
8.364891705749314399e-01
6.655077460060678796e-01
7.049907873577530015e-01
5.919858021568671358e-01
5.965766524015950756e-01
5.493077725600507000e-01
5.167427436559215437e-01
4.531572490529497954e-01
3.106604732857424223e-01
3.489690503505582519e-01
2.912664754344867490e-01
1.813375788838765268e-01
1.218855261509810828e-01
7.473942090694295215e-02
-1.150242806733368234e-01
-2.619127459211613163e-01
-3.381929633142052860e-01
-4.254838360377189432e-01
-5.928585785775689621e-01
-5.413629372654522598e-01
-6.293460758021243162e-01
-7.255800716476973333e-01
-8.330432057057275408e-01
-7.599010900453098127e-01
-8.403551580845274316e-01
-8.830013871233780565e-01
-9.429417805521445040e-01
-1.040924320599817765e+00
-9.548943461092622709e-01
-9.780285055473187938e-01
-1.036757270447252743e+00
-1.083247135519261661e+00
-1.104943385245772847e+00
-1.051003645968261235e+00
-1.166669578199454715e+00
-1.249804327808430537e+00
-1.269284001085811298e+00
-1.285042873126345020e+00
-1.298822610349720463e+00
-1.349180632870036201e+00
-1.316247387717858208e+00
-1.350347378626686412e+00
-1.245981699224848471e+00
-1.181532834848380453e+00
-1.214122922600449517e+00
-1.054021005311510883e+00
-9.864696327490177774e-01
-9.280899199823962054e-01
-9.517567580015303674e-01
-8.470454119155568229e-01
-7.692593465373914752e-01
-6.738742294060376947e-01
-7.384490449036867910e-01
-6.287521059947064339e-01
-6.024144219042958381e-01
-4.597297620995612899e-01
-4.766023896674040916e-01
-4.014684253704924322e-01
-3.529647046596234294e-01
-2.934183497520908013e-01
-3.042024951466509863e-01
-7.614881301270129410e-02
-1.782740399932303960e-02
8.399289022861933240e-02
2.279283032048428637e-01
2.463458638080871232e-01
3.245765649715121604e-01
5.598069171408273093e-01
5.888789950687410846e-01
5.758301297527980145e-01
7.388232892718425981e-01
7.313072532540606518e-01
9.235492670788051361e-01
8.960028870919566346e-01
9.975039506805439826e-01
9.238136473649878333e-01
1.026472165610138543e+00
9.820931792537133109e-01
9.912158790247064255e-01
1.127205315029041532e+00
1.070277452064480661e+00
1.180995237720496416e+00
1.146878597538610656e+00
1.252906302876243938e+00
1.194719783802210333e+00
1.271034696239395911e+00
1.297132010687552350e+00
1.377394704025449279e+00
1.341848301234939367e+00
1.406518736386331181e+00
1.297418867576887402e+00
1.354962434128881954e+00
1.362626101250900446e+00
1.317482024589660128e+00
1.229885968895345627e+00
1.128897080758143989e+00
1.079014585832774431e+00
1.039340382840724608e+00
9.162701768210572695e-01
8.971782309610351058e-01
7.895246068795832572e-01
7.173037016747109140e-01
7.801013465568816807e-01
6.571965321545474303e-01
5.844129487261640055e-01
6.151719431080174827e-01
4.657030445471617153e-01
4.800220908164530287e-01
4.706871362920548307e-01
3.505853128999601998e-01
2.744222177133549545e-01
2.422549862437933244e-01
1.256724741611997542e-01
3.009322618942598254e-02
-6.920368470857773957e-02
-2.124842574286838481e-01
-3.064208305985323122e-01
-4.073562285187778409e-01
-5.042189586527436873e-01
-5.654347320933804655e-01
-7.210340700967776684e-01
-7.744874912820585156e-01
-7.975188082664299571e-01
-8.853244703297269425e-01
-8.201812537623951460e-01
-8.845324245753849457e-01
-9.768483228105396821e-01
-8.766279251791324612e-01
-9.802365880293291145e-01
-9.793386175449104725e-01
-1.038152149451143647e+00
-1.010326701400475979e+00
-1.088376771219313532e+00
-1.186788927465713517e+00
-1.236871757471170064e+00
-1.204493417755335027e+00
-1.277047016172353500e+00
-1.325097127337822256e+00
-1.264791830023657804e+00
-1.359217067356881969e+00
-1.349025475824639608e+00
-1.284222057902304037e+00
-1.198068397246322858e+00
-1.219874161184242523e+00
-1.097496268708626488e+00
-1.034676558592237283e+00
-1.030740777584761680e+00
-9.600725414470044905e-01
-8.200591798535652455e-01
-7.985162231811610001e-01
-7.140782841865730424e-01
-7.781025481553178746e-01
-5.912756411183446303e-01
-5.771067115844318307e-01
-5.626246494307328705e-01
-5.488456875944632829e-01
-4.859812256811562037e-01
-4.735753233102726889e-01
-3.327806268247101573e-01
-3.758791521432626181e-01
-2.702317959729784169e-01
-1.959688474435017647e-01
-1.052628726776884405e-02
7.922154319626496799e-02
1.833901930062802610e-01
1.869264040353795231e-01
3.741958195570643797e-01
4.830860660874521928e-01
5.568917668546864430e-01
6.308153342563321830e-01
8.013439938823117004e-01
9.319495092708981465e-01
8.338076599978129222e-01
9.559267000629982913e-01
1.003893920704618470e+00
9.269865532091391414e-01
9.576753376076170277e-01
1.040062877139080078e+00
9.681591323810652128e-01
1.004973118218725370e+00
1.009010523878371091e+00
1.177442844695045565e+00
1.273074362634597279e+00
1.282197313281108197e+00
1.303286704727727008e+00
1.329214096328539263e+00
1.355944723915964545e+00
1.395903491192274526e+00
1.437780435554171454e+00
1.366650469345230823e+00
1.397285093281578350e+00
1.372215395877904198e+00
1.326760789023544884e+00
1.244187258152189113e+00
1.203300806778581977e+00
1.164743316269519546e+00
1.128336251975721627e+00
9.485568615452317776e-01
9.313067879209678823e-01
1.007619206389976707e+00
7.804370799070371456e-01
7.367149497842531147e-01
7.398175945581723090e-01
7.429758223977090958e-01
6.400759087179357376e-01
5.403871802178199513e-01
5.643320680384494858e-01
5.037429169163322173e-01
4.174726036129355333e-01
3.608212799568606965e-01
2.851676773898700334e-01
2.969342667929575352e-01
9.607587080351200071e-02
1.117333456572539990e-01
-2.212182348990095193e-02
-1.518791788691533085e-01
-2.500703023597297125e-01
-4.850217100571994622e-01
-4.390896853389013588e-01
-5.681102903605763643e-01
-7.790171699214899492e-01
-6.994878777153397120e-01
-8.058289470315520564e-01
-8.554607356678768371e-01
-8.328142558880370361e-01
-8.625628466096755265e-01
-8.855882852819073614e-01
-9.024577794096910743e-01
-8.772658136513890037e-01
-9.901560132229100253e-01
-1.018974105248079631e+00
-1.027217844812272185e+00
-1.094033033160275892e+00
-1.135379751757918054e+00
-1.174411196009323755e+00
-1.313941133760293756e+00
-1.172573839124494866e+00
-1.288477993587953563e+00
-1.352357969165192131e+00
-1.409345158756523331e+00
-1.338827728593572353e+00
-1.316655549429878391e+00
-1.254106718957907818e+00
-1.241668880044718204e+00
-1.110247396784179719e+00
-1.042276811084065224e+00
-1.004826477519851435e+00
-9.762987914790093313e-01
-9.229609264832931981e-01
-7.527409468377492807e-01
-6.762040743038767454e-01
-6.767821677472588560e-01
-6.335988693835638008e-01
-5.278592412213866103e-01
-5.009497850313541223e-01
-4.875671588108018151e-01
-4.257331317999383247e-01
-5.551756451545402093e-01
-3.117349168021034123e-01
-2.682044887980037928e-01
-1.776093293925789796e-01
-8.708650306678063224e-02
-8.203645893779334952e-02
6.882475541534278929e-02
2.612177619073189905e-01
2.182869871947550333e-01
4.533325898835071643e-01
5.527908065336651910e-01
5.295461842712962941e-01
6.068982757910251769e-01
8.191521015773205461e-01
7.655995709591112419e-01
8.273728155749058288e-01
9.446326148137631495e-01
9.282266190955700269e-01
9.517277439897341429e-01
1.012532740990010671e+00
1.045710289004484705e+00
1.081581817516193533e+00
1.055008396914157709e+00
1.084922596828535646e+00
1.144154156551277390e+00
1.252848010617377605e+00
1.241080672523400708e+00
1.203900815382019651e+00
1.311798323350375606e+00
1.319368713244942315e+00
1.339896350296014615e+00
1.405998889566098198e+00
1.480262875951698032e+00
1.458954086343973833e+00
1.366287701005743260e+00
1.352700211096450333e+00
1.274884768040193350e+00
1.236863016376752666e+00
1.184080090808813157e+00
1.025938071001048613e+00
1.016248707163864839e+00
1.045666714112238438e+00
8.658451679771225207e-01
8.082509545895295577e-01
8.959986498920470277e-01
6.484362399038021696e-01
7.238403890152709241e-01
6.402768534930156630e-01
6.762250349495189106e-01
5.298877845896144967e-01
5.449416418785084648e-01
5.205588241430337826e-01
4.019449678251501012e-01
2.866262987948732244e-01
2.422821689785313037e-01
1.617689004257607810e-01
9.031192810975827157e-02
-1.310649564341262452e-01
-2.317035855519627985e-01
-2.493833101460073975e-01
-4.109338918178743749e-01
-4.852486930248536834e-01
-5.102708235232503720e-01
-6.557516256554914991e-01
-6.661904748506042306e-01
-8.519316839450794543e-01
-8.076408210764316475e-01
-8.433619637549902848e-01
-9.165615191528507788e-01
-9.119526665590648173e-01
-9.714612948778484913e-01
-8.984969473663804163e-01
-1.049662967556816318e+00
-1.018970829991603821e+00
-9.903972344483080725e-01
-1.185589007224357561e+00
-1.049593438292404146e+00
-1.114569635064892372e+00
-1.281559893111832604e+00
-1.287668816124291293e+00
-1.302248762506578394e+00
-1.287044672528970812e+00
-1.280488527082821681e+00
-1.311360428964631009e+00
-1.396708451669389284e+00
-1.153559714289283056e+00
-1.167213494304722987e+00
-1.116222923700577407e+00
-1.044094348005914386e+00
-9.398121734163603636e-01
-8.390643367249828177e-01
-8.228427433291999327e-01
-7.943764456909876426e-01
-7.336055420530254167e-01
-7.138761152475704419e-01
-6.769624284043325169e-01
-4.928314451955596587e-01
-5.087815724333675238e-01
-5.670418822329109654e-01
-4.716673259140474750e-01
-3.288876496808917915e-01
-3.574827362372321460e-01
-2.618423965821127242e-01
-1.711545452483993479e-01
-1.544007852442985940e-01
-7.153217211664793240e-02
1.131514773670350832e-01
1.283411086621920882e-01
3.681135497738901585e-01
4.625161645821271872e-01
5.260717260558815944e-01
6.161038447022190168e-01
6.960600131521175182e-01
8.814575756673981299e-01
8.248864830111621860e-01
8.748779732083306060e-01
9.457581044037232099e-01
8.343939545073644215e-01
9.876204280063866081e-01
1.029128232467092507e+00
1.083764511723589230e+00
1.071454640770736155e+00
1.055801313151877308e+00
1.131331617621864849e+00
1.146890601494530371e+00
1.118609485012744376e+00
1.188534790592337131e+00
1.219819675878994758e+00
1.345165163654989948e+00
1.400626403501601169e+00
1.434558458666289171e+00
1.362539199832728531e+00
1.429343835058748624e+00
1.469099140016916216e+00
1.340294010582921524e+00
1.339778310274738926e+00
1.272071692332595649e+00
1.290414524072414526e+00
1.173135514572441584e+00
1.116566309456198614e+00
1.038985686835054434e+00
9.168686829266763372e-01
9.897623294588585585e-01
8.016126153256279974e-01
8.212181791139916420e-01
7.346143212952365165e-01
6.906793993182138713e-01
5.776227162383298364e-01
6.311203461302472562e-01
5.340024964699882082e-01
5.112955684643211152e-01
4.012557073630399485e-01
3.662002475665881995e-01
3.441025985861342340e-01
2.539957817522235928e-01
1.409088463681961445e-01
1.903643692676773927e-02
-1.046388684945835368e-01
-6.441825906665216150e-02
-2.003526321158700385e-01
-4.964358598824742397e-01
-4.756276281210898293e-01
-5.249342109718195815e-01
-6.530737880699111209e-01
-6.955272916363638425e-01
-8.577843129839003433e-01
-7.364389628898164730e-01
-9.015425929782104886e-01
-8.348723313601773555e-01
-8.672358722137458731e-01
-9.547988834556043747e-01
-9.611494770276423072e-01
-9.883917625291396281e-01
-9.855074972040285264e-01
-9.486978268355986676e-01
-1.118033612440512359e+00
-1.033663228130431211e+00
-1.157638965240610940e+00
-1.244805906368066095e+00
-1.294621385415777759e+00
-1.254374507934170158e+00
-1.254307474698594715e+00
-1.351179928702665567e+00
-1.367458804329577449e+00
-1.236904138963232258e+00
-1.313871121402889974e+00
-1.096876052287989900e+00
-1.221293468275183702e+00
-1.095984972376271793e+00
-9.946746820202022610e-01
-8.218026016210431273e-01
-7.929397658327015375e-01
-7.570075736057394478e-01
-6.515346733242193267e-01
-6.097679933565632870e-01
-5.711520745260987297e-01
-6.168977820650760613e-01
-6.014084734330336079e-01
-5.067959201126410740e-01
-4.118950629604938851e-01
-3.486269017697570805e-01
-2.833170195860627572e-01
-2.132040656699955017e-01
-2.102047882142143442e-01
-1.112658925843034441e-01
-3.287930446828923881e-02
5.446834504160689983e-02
2.505073095822097362e-01
2.779357374773152589e-01
4.974194578650063536e-01
5.075494503497722798e-01
7.043974032290680753e-01
6.649945568102187954e-01
8.921638956067086124e-01
8.288615825641943990e-01
9.178315090257264108e-01
9.122202755736507074e-01
9.388158836032790555e-01
9.404543354002757871e-01
9.712460730228179573e-01
1.009325957777961857e+00
1.084075737034490228e+00
1.058569617606201607e+00
1.170203605315302209e+00
1.133716922506754043e+00
1.196986293047218375e+00
1.249487212565256744e+00
1.412095376127019852e+00
1.358481857007918459e+00
1.489904243023267849e+00
1.502572120905695252e+00
1.416660999574251401e+00
1.392871844626849320e+00
1.362419428048923908e+00
1.377769762695219224e+00
1.245259268582917134e+00
1.355402304821798021e+00
1.186224379606898305e+00
1.182294342572413948e+00
1.209668616940231312e+00
1.018777575501284893e+00
8.899559447112039834e-01
8.539680670595578560e-01
8.989301807558850443e-01
8.384270399805637819e-01
6.536030295062131845e-01
6.779084306289832051e-01
6.531742670012444796e-01
5.208144011651409944e-01
6.118713178711873146e-01
5.334450536312109747e-01
5.681589202708402508e-01
3.267516255090404664e-01
2.883803733920596857e-01
1.851583203212044115e-01
1.653097879431245643e-01
7.438526165185097017e-02
-6.635656268460352059e-02
-2.058024113296872126e-01
-1.662856430101505856e-01
-3.829112508591193120e-01
-5.682606302774803053e-01
-5.658986124140750196e-01
-5.650795492126146069e-01
-6.591829175980761235e-01
-7.694139463168139237e-01
-7.804716975245012955e-01
-7.985473836713632423e-01
-8.447277534981250113e-01
-9.170537311316711016e-01
-8.757484144253784297e-01
-1.040776010249851780e+00
-9.548893737224163347e-01
-1.001047473076886352e+00
-1.014467386591267672e+00
-9.944084130969270685e-01
-1.086029678728250403e+00
-1.180941183087376389e+00
-1.163200361374058689e+00
-1.189948162123275699e+00
-1.209901736845140130e+00
-1.225334372584532483e+00
-1.310920673875389575e+00
-1.262916048101980548e+00
-1.209461336636265205e+00
-1.273050007287588326e+00
-1.184670131192247844e+00
-9.927351967111984754e-01
-1.084772617098188841e+00
-9.655299085078863364e-01
-9.550971811590520666e-01
-7.772066200435746586e-01
-6.947042945392337687e-01
-6.073328025610589265e-01
-6.591368778671973239e-01
-5.805494779940639782e-01
-5.932586199772380553e-01
-5.480208956161923828e-01
-4.669599346045707478e-01
-4.746085174475442869e-01
-3.520449825198814220e-01
-3.430831090368496317e-01
-1.891816051080530969e-01
-9.356555813842279412e-02
-1.409135228486135538e-01
2.077528335446818253e-02
-4.582581853665432248e-03
1.925764293044982534e-01
2.546397597451659500e-01
5.100596948237585693e-01
4.955549065925422547e-01
6.957563232592598457e-01
6.343524742651739379e-01
8.076840877583290057e-01
9.003738528505690342e-01
9.597691246298192258e-01
1.035142310622922057e+00
9.725360771428178674e-01
1.084808102905002958e+00
9.760564061356354904e-01
9.771344060857155567e-01
1.132361101449568697e+00
1.097101321737768975e+00
1.137421309151708471e+00
1.199655210717519127e+00
1.272422533089704100e+00
1.239955139976742560e+00
1.218988226479885251e+00
1.338195592978430160e+00
1.346529231948982996e+00
1.482238902290266669e+00
1.467372094878162558e+00
1.435835942467357240e+00
1.451226397097929999e+00
1.343270049061315863e+00
1.436508309450355236e+00
1.307093372372463813e+00
1.181569128256140466e+00
1.148274674268740858e+00
1.176346473999076103e+00
1.078198226767987045e+00
9.799799784429054084e-01
9.317337030776300377e-01
8.678705335441794233e-01
8.318633735716076671e-01
7.205288611730927828e-01
6.737696987124960346e-01
6.397242921960832884e-01
5.746774126884729439e-01
6.556266362669864733e-01
6.133914750329172438e-01
4.278946245255808023e-01
4.434414955281028581e-01
2.754019332063247782e-01
2.816425673486938064e-01
1.823015997021251444e-01
1.000340600933395385e-01
1.804496519957526912e-02
-1.512680357361727568e-01
-3.100369553639372722e-01
-3.744395511414571054e-01
-4.289686341440053230e-01
-4.984155498306701015e-01
-5.501765731405429127e-01
-8.037723326476363672e-01
-7.493505968308951104e-01
-7.787192222242546036e-01
-8.625990836338971457e-01
-7.525918205611727974e-01
-8.994334783556229285e-01
-9.905680814463937445e-01
-8.932033179500582509e-01
-1.001766674617895925e+00
-1.046152692605274215e+00
-9.769299809561328152e-01
-1.014872441431704519e+00
-1.105085599257613183e+00
-1.136034973024792061e+00
-1.236247750236669107e+00
-1.167070163115489168e+00
-1.267126175849680569e+00
-1.276299443990108529e+00
-1.273274194983754715e+00
-1.284528750296965338e+00
-1.281681619498894475e+00
-1.225184428423998551e+00
-1.121882514405374565e+00
-1.028369976813954922e+00
-1.043818608193282094e+00
-9.060489315507644914e-01
-8.586446402807295097e-01
-8.129607858923729724e-01
-6.731498145588454829e-01
-7.496556498524067358e-01
-6.862783607539428843e-01
-6.356899152800471464e-01
-4.958180651010262174e-01
-4.386210029007903688e-01
-4.080473472504428933e-01
-5.248202587880679282e-01
-4.043151158162876513e-01
-2.377936262344336749e-01
-1.886394524157409269e-01
-2.033062202139443442e-01
-6.155703051531496300e-02
-7.205027724379038656e-03
9.290796581301832835e-02
1.584231749635867104e-01
3.102640385012715440e-01
4.598327606981149063e-01
5.671396615007708863e-01
6.382015727461789467e-01
7.409385439484719171e-01
7.718059591517881790e-01
8.894838037674711595e-01
8.606809061391763604e-01
9.668918437923360587e-01
1.092947012604723600e+00
1.014454224284818906e+00
9.728116706695975058e-01
1.034299697327515588e+00
1.091116459515024673e+00
9.670520605596581998e-01
1.224075325604234488e+00
1.203402921691963945e+00
1.179962438350234510e+00
1.229614936440594608e+00
1.326723530576111143e+00
1.377334237519540094e+00
1.418025890512797815e+00
1.475019680137626299e+00
1.375460990718200271e+00
1.457823122383133496e+00
1.346710054078749108e+00
1.395550130772938768e+00
1.479200265397287772e+00
1.278331656017409390e+00
1.307324812290316052e+00
1.202940630806713207e+00
1.205616036419935311e+00
1.069139268583129132e+00
9.632516612474059103e-01
1.020187832204472622e+00
9.207980249552596419e-01
7.664533514256803848e-01
6.979569700777723540e-01
6.702260842418567011e-01
6.754930319642394876e-01
6.594405323374927796e-01
5.615298691977055334e-01
5.253314100128801956e-01
5.472277541863695971e-01
4.940787667951991868e-01
3.405770548861086766e-01
2.691522900910452432e-01
1.898184674989333298e-01
3.876214256660312496e-02
-8.635278547537347804e-02
-1.609124493654142951e-01
-2.039563633223740180e-01
-4.320638610585521011e-01
-4.055684074317659760e-01
-5.825210991793813298e-01
-5.681308122657258153e-01
-6.825792732007138763e-01
-8.551989797494304879e-01
-7.449180265586266003e-01
-8.004617161094370603e-01
-8.287877322599854768e-01
-8.097954406321392629e-01
-9.529888606264181883e-01
-9.165797658181107366e-01
-9.341029913186036371e-01
-9.383373534622462264e-01
-1.014728822691958410e+00
-1.053220209382831341e+00
-1.038659674960910495e+00
-1.131666318631584289e+00
-1.201399137312791465e+00
-1.213068458361712398e+00
-1.236253770391069873e+00
-1.141204134952379823e+00
-1.207886278349054265e+00
-1.273488900070191443e+00
-1.235764446795233562e+00
-1.187897561030266225e+00
-1.208191894158357149e+00
-1.037681333149531815e+00
-9.828393192670908940e-01
-1.000683142249763957e+00
-8.423488244906669475e-01
-8.191189193353619613e-01
-6.935394416627922443e-01
-7.677008545251809979e-01
-6.981059810180074710e-01
-5.973266510904913229e-01
-3.700700769328716389e-01
-4.585618224057195214e-01
-4.796122895250153340e-01
-4.254869772275949869e-01
-3.459088386808196747e-01
-3.308461082143048237e-01
-2.626120149240632196e-01
-1.879439209613111283e-01
-1.428430778222838371e-01
2.596732459979549795e-02
9.523343045098400794e-02
2.927837075410468781e-01
3.103891807128219549e-01
4.807442638552467118e-01
5.672920789949559284e-01
6.421974852264740186e-01
7.679912085996906113e-01
8.729264311746440796e-01
8.021192050392479400e-01
8.545527059541792037e-01
9.612288964649509104e-01
1.008151659071727435e+00
1.061620196734129218e+00
1.082817736054024094e+00
1.141726640200759757e+00
1.186430381654060673e+00
1.162986060976081371e+00
1.210337060011264176e+00
1.182958015781491179e+00
1.203950748952647087e+00
1.311037256146257324e+00
1.324946804831527825e+00
1.383297723800554824e+00
1.335642286151762947e+00
1.386912852459434520e+00
1.437150873399867912e+00
1.516390439996794681e+00
1.406984107189162669e+00
1.460050179690070005e+00
1.425561781752130219e+00
1.342787983539018182e+00
1.149127546001039946e+00
1.190760463261808066e+00
1.208334631485059596e+00
1.080905629584341110e+00
9.944004544067824858e-01
9.044739260892085131e-01
7.525041761299431364e-01
8.031606870312754110e-01
7.876862759429480443e-01
7.060311324553876222e-01
6.311311431560363561e-01
6.412733083542256907e-01
6.413214274057986719e-01
6.247088530825665176e-01
4.783518648050719690e-01
4.119914354635149101e-01
4.002172134334520126e-01
2.803856725053460730e-01
1.670676045530161968e-01
2.657966739588405597e-02
-3.562752652806138592e-02
-7.854948254519274198e-02
-1.993145471232992127e-01
-4.196646732085964615e-01
-4.928720288357860135e-01
-5.953441241570450737e-01
-6.079434737819696677e-01
-7.270128130351715123e-01
-7.674028776563360799e-01
-7.725302632693717975e-01
-8.769880638644096393e-01
-7.539999815420291851e-01
-8.529462323544937385e-01
-8.199882616619019737e-01
-8.243067635506575730e-01
-9.045573438260796628e-01
-1.016444083395511955e+00
-1.025488716143173606e+00
-1.003592472798534141e+00
-1.103680372685268196e+00
-1.104316493833608748e+00
-1.131965447764655464e+00
-1.264135688976521399e+00
-1.241579996498224148e+00
-1.245770150675254317e+00
-1.234226677343072121e+00
-1.184855170346707176e+00
-1.245337184034766009e+00
-1.207336231769748913e+00
-1.210117272495031759e+00
-1.094926468153569976e+00
-9.266981708540369400e-01
-8.975345088955765105e-01
-9.122862561725901820e-01
-7.846950226406891327e-01
-7.572770207364076800e-01
-6.121361083550762583e-01
-5.680707312400193887e-01
-5.827250613717648298e-01
-5.216169010147546636e-01
-5.393907435439211362e-01
-4.184167068802041589e-01
-3.839550829676832699e-01
-3.005677320393144725e-01
-3.736324096376121284e-01
-2.732116252996431016e-01
-1.897422255920683809e-01
-1.060121798679400235e-01
2.817627312595401279e-02
5.292666685232427781e-02
1.809038518765762882e-01
3.710851373460883895e-01
4.269631031608311367e-01
5.453275104643158233e-01
6.161223539604522292e-01
7.509845808077698637e-01
7.916010059561534584e-01
8.588273337410501362e-01
9.352328308049022709e-01
8.995255439159939304e-01
9.077631310144632648e-01
1.024755846238900148e+00
1.089987825786496556e+00
1.156904852485484581e+00
1.088694599442648903e+00
1.141582074280123260e+00
1.250564240372306513e+00
1.104904926245804164e+00
1.180222545808857104e+00
1.362637054667188208e+00
1.353837596803892040e+00
1.377192568991424393e+00
1.442513049013459669e+00
1.418339551112278274e+00
1.487878978260066098e+00
1.420815521088192313e+00
1.457561447823166656e+00
1.490281932145900878e+00
1.397238456123357730e+00
1.303457503577225118e+00
1.292320219641448276e+00
1.215566021906276717e+00
1.109466916896709954e+00
1.058647344037392024e+00
1.019228798055694440e+00
9.007340576191803505e-01
7.130936224873213325e-01
7.597152348067308658e-01
7.593840399579339095e-01
6.940235923932973616e-01
7.415986439627739735e-01
5.733129455290024712e-01
6.310990568003896906e-01
5.200243304130723887e-01
4.467034187314148919e-01
3.209742552159002282e-01
3.226613284838027451e-01
2.901333696389154504e-01
1.954454015782938481e-01
1.134662268023693410e-01
-2.623001960857562070e-02
-1.024592741008302638e-01
-2.919664661079308665e-01
-3.401433281941871889e-01
-4.568169995533968297e-01
-4.622358947534908058e-01
-6.140663997415487518e-01
-7.083000607283858052e-01
-7.176276881481075121e-01
-8.011063517779375420e-01
-7.717411191161095418e-01
-9.121791553497605731e-01
-8.379677046570460641e-01
-8.837432168434710134e-01
-9.234701988499361969e-01
-8.355015144221661361e-01
-9.872520915781436424e-01
-1.014538524372421202e+00
-1.015647392814055028e+00
-1.125576895599615712e+00
-1.109481517004157647e+00
-1.120792532937647135e+00
-1.200950888060697386e+00
-1.233015792040436986e+00
-1.324399782854055463e+00
-1.344341040997973913e+00
-1.290869416795048297e+00
-1.202864177598344186e+00
-1.243410372355184590e+00
-1.102965285161117803e+00
-1.059669674215460322e+00
-1.028412329635532751e+00
-9.444488915073945279e-01
-9.049688394335096975e-01
-8.227373706407363763e-01
-6.996486900348858340e-01
-6.508793390218291508e-01
-5.249573239380626033e-01
-6.008419609095436709e-01
-5.684441177812507018e-01
-4.462110478441348449e-01
-3.954153160602478234e-01
-4.273309528133929502e-01
-2.574977490485215181e-01
-2.815164584197218933e-01
-2.152509852297323223e-01
-1.811332320804747986e-01
1.353331160277873590e-03
8.183174878923096807e-02
8.531422694075380120e-02
2.744657415063804229e-01
3.565406560631800281e-01
4.459270161853828296e-01
6.528599013387991201e-01
6.460092497199855233e-01
8.036573692508361955e-01
7.359671993847090032e-01
8.818192830689114414e-01
1.072096240072878182e+00
9.785721573813698226e-01
9.392165158956656823e-01
1.093285809456963298e+00
1.114842226495587951e+00
1.079476699248315130e+00
1.113284137709118271e+00
1.092867625717028224e+00
1.105498184313662424e+00
1.247767224517409623e+00
1.232551140770709042e+00
1.290704983485199575e+00
1.295683165550330473e+00
1.359683334936218513e+00
1.391404442484772463e+00
1.438407885030455802e+00
1.519244938656074684e+00
1.452763839425086134e+00
1.379997464581289357e+00
1.464923066339881563e+00
1.377164557306916892e+00
1.244021205819557885e+00
1.194404634590103820e+00
1.191082671979683649e+00
1.076984391260616292e+00
1.100858788089293716e+00
9.120610289479099686e-01
9.530527026602322316e-01
9.016156562453235823e-01
8.208862898576260170e-01
6.873003876470799023e-01
7.675404002857848518e-01
6.553782782077737235e-01
6.018043231212197863e-01
6.137292109621242941e-01
5.248747532148456685e-01
3.879535931703538276e-01
4.535014966634786648e-01
3.457873270887547590e-01
2.500569703001282451e-01
1.308542058114404161e-01
4.808596699746004594e-02
-1.726415356276763124e-01
-3.813883759960190467e-02
-3.591688700284415559e-01
-3.249305883332297973e-01
-4.778933244778636458e-01
-4.426047101371372028e-01
-6.453856869068919089e-01
-6.826907462768575519e-01
-7.239296991957822058e-01
-7.625236166334610211e-01
-8.614663643092966838e-01
-7.668424461568276174e-01
-8.639657919449843515e-01
-8.589460215702235946e-01
-9.458850951989051792e-01
-8.220081520709676681e-01
-1.026964688464291564e+00
-9.242403287579936677e-01
-1.006538762523725872e+00
-1.066365136826493254e+00
-1.170753481706240606e+00
-1.187763140066946610e+00
-1.105884718354733787e+00
-1.255228390779498548e+00
-1.251664496844712593e+00
-1.271154550146084139e+00
-1.305329462718323397e+00
-1.206163683263980824e+00
-1.121483660709649000e+00
-1.168674455960717173e+00
-1.060892662737932479e+00
-1.052664843881827572e+00
-9.764005072678556552e-01
-8.496355954526124687e-01
-7.538017627050300762e-01
-7.465766755263494314e-01
-7.407756171775548015e-01
-5.565590693894622021e-01
-4.565512001796381281e-01
-4.890308182182185326e-01
-5.265422672038069241e-01
-3.947958590982891258e-01
-3.420110885901850861e-01
-4.300561666141375916e-01
-2.143871616857898621e-01
-1.850853181260246894e-01
-1.355772312370790711e-01
-1.175919894852459346e-01
6.802408120349365261e-02
8.611178191423013439e-02
2.206970238349805213e-01
4.206588888033843676e-01
5.214903739437329877e-01
5.637159950257808472e-01
7.430742984034095500e-01
7.402810245898230335e-01
7.985036258864222081e-01
8.708424470292741582e-01
9.219083468279752891e-01
9.771435262898484631e-01
1.031360567733837330e+00
9.810488181551640929e-01
1.166794397499779201e+00
1.144704310013089366e+00
1.039318174041936826e+00
1.096694905940163389e+00
1.196687174457220726e+00
1.090609086918691073e+00
1.255276724640910002e+00
1.261907241472910002e+00
1.197556815483718839e+00
1.260611294304032182e+00
1.359789565869283789e+00
1.465868418713412114e+00
1.405414859845205200e+00
1.399815605876847391e+00
1.438063417729602556e+00
1.421501696494319011e+00
1.414510872650469153e+00
1.354211568968956669e+00
1.325775381505973405e+00
1.229380764480154653e+00
1.130327063862994086e+00
1.090839876485820481e+00
1.008159772586091130e+00
8.717941869067019622e-01
8.787994237188507807e-01
7.750959313658660754e-01
7.913835635490653608e-01
7.359732637484938111e-01
6.918009715832357243e-01
6.092265052741470122e-01
6.028759043238999249e-01
4.769570086731590441e-01
5.143698289553874092e-01
4.552178257791620331e-01
3.234685346440608344e-01
2.869498584926910012e-01
1.522553598916820683e-01
1.070427284400895518e-01
6.355666701094275783e-03
-9.005476408422896650e-02
-3.110592063889264791e-01
-4.230507824465661315e-01
-5.058776331089851475e-01
-4.953600397678450395e-01
-6.328971976432613555e-01
-6.910344567091368795e-01
-6.937440520194003701e-01
-7.800046569471028590e-01
-9.613097572592139706e-01
-8.058337150338366062e-01
-9.447638780958669269e-01
-8.829123210710123626e-01
-8.527129915537247085e-01
-9.509856073468333504e-01
-9.233150148661827261e-01
-9.791826292850511759e-01
-1.057560047728319130e+00
-9.847358838059977471e-01
-1.136551901204812198e+00
-1.189969599698221803e+00
-1.240308316940073707e+00
-1.232478901226360835e+00
-1.228319009532099049e+00
-1.259074597329188805e+00
-1.295052502957762419e+00
-1.292071904855974784e+00
-1.224656483865774748e+00
-1.089605234420404800e+00
-1.127705401138483943e+00
-9.977670028654395118e-01
-8.907005998669287328e-01
-9.142798268008509588e-01
-8.868814374511269083e-01
-7.354296667523216868e-01
-7.387841968446620111e-01
-7.380047809082158627e-01
-6.002337269396625929e-01
-4.530715697368925543e-01
-3.876265303788044569e-01
-4.063631935774197901e-01
-3.461234473210779150e-01
-3.713611033413469209e-01
-2.408393965907284218e-01
-2.435038606333892464e-01
-2.584138190462906270e-01
-5.709470095775958515e-02
-4.215485029842416798e-02
1.384152400802179383e-01
2.407242078302418986e-01
3.553339440678753847e-01
3.663091232964876820e-01
5.822847995039250879e-01
6.496381949797431776e-01
7.558850906644279943e-01
9.082821117675028422e-01
8.400668674795612745e-01
9.835388757859884201e-01
9.144762594233810660e-01
1.063428818968216172e+00
1.105823648154294236e+00
1.112753127071542503e+00
1.174406098486949102e+00
1.160415280953221107e+00
1.247678584327946316e+00
1.071802230598615902e+00
1.168513455423706215e+00
1.139077112172629969e+00
1.300185228714058727e+00
1.319850386957017507e+00
1.457882875813313328e+00
1.464289951757903330e+00
1.385047491880238013e+00
1.492075654304318544e+00
1.524030149652973565e+00
1.528540501971442866e+00
1.428784359955149075e+00
1.324689159701338825e+00
1.412620909585215578e+00
1.246170476549569361e+00
1.235450919479184284e+00
1.162847674750382199e+00
1.099403107618474484e+00
1.008450021478104697e+00
1.000925136849589281e+00
8.112124983128644606e-01
8.012654938148143779e-01
7.134303782060629207e-01
6.625140781209859497e-01
6.634635133253453665e-01
6.186016818008961415e-01
5.378064009363812126e-01
5.582145532622913020e-01
5.422129066612415560e-01
3.702799395662698667e-01
3.530967580483113100e-01
2.765756997321408561e-01
1.877413261285683088e-01
7.522356926623738338e-02
-5.040659071430407534e-02
-9.142937563770731080e-02
-2.043096407416253590e-01
-3.492205781272799126e-01
-4.419673583911341019e-01
-5.845670776176985495e-01
-6.146885642828878726e-01
-7.776302204018705755e-01
-6.885273433853014158e-01
-6.991621105098474453e-01
-8.253026961462979205e-01
-7.893453944815976842e-01
-8.867444631414328482e-01
-8.569276901094361465e-01
-8.875883520920991865e-01
-9.484277562048449850e-01
-9.129061091859252963e-01
-1.034882388537062159e+00
-1.048847891934031606e+00
-1.159032720155757978e+00
-1.124028521037390149e+00
-1.064271811462029094e+00
-1.179179504330243100e+00
-1.163050046383506952e+00
-1.246620946828031817e+00
-1.309968818381742839e+00
-1.251857093961747047e+00
-1.291560644957393311e+00
-1.083445607758608764e+00
-1.114173155261024784e+00
-1.117147171187843346e+00
-9.019505106917584669e-01
-9.360302292663592594e-01
-8.948005989033246399e-01
-8.465891402887909534e-01
-7.439805323354906630e-01
-8.276226040098039194e-01
-5.796253595272159442e-01
-6.237065884126666848e-01
-4.617546118154517432e-01
-4.509595570936787978e-01
-4.560475952566108715e-01
-4.385420484285675324e-01
-3.046482958476747771e-01
-3.535548607062038440e-01
-1.818294223656388986e-01
-9.030471608179739540e-02
4.470010694226028702e-02
-6.579271810779976914e-02
1.317221362159800291e-01
2.589525705050911841e-01
3.735983914813204576e-01
5.304688932391408152e-01
5.813771588829044212e-01
6.187081435486562198e-01
7.341425116348397895e-01
8.169985358294906685e-01
9.313247304533998072e-01
9.031029847988732984e-01
1.000219592190076501e+00
1.024870130996508477e+00
9.442781369191473040e-01
1.080211904521858113e+00
1.098952927886437614e+00
1.112125985743061429e+00
1.098360021207989368e+00
1.207709073462970739e+00
1.220031714295190861e+00
1.237099954113423328e+00
1.268948400437240220e+00
1.367923057204014414e+00
1.435664771917721572e+00
1.425546513723791708e+00
1.467427005374611015e+00
1.447274397138492485e+00
1.492209103037698492e+00
1.469545624214642965e+00
1.306546830786428748e+00
1.391695970716719133e+00
1.378467790795973480e+00
1.290749167546993093e+00
1.256797199365585982e+00
1.079609105876156327e+00
1.048190918137894556e+00
9.865177038581328661e-01
9.621849743796142551e-01
8.492290997554181597e-01
7.608926772062781785e-01
7.919096682052719771e-01
7.401451828681157030e-01
6.550978534145410759e-01
5.674313653373286304e-01
5.411891588637968153e-01
5.612774575043393277e-01
4.231130356888673227e-01
3.375925797352624658e-01
3.381290757634968225e-01
3.236292979022707961e-01
1.060916482029076180e-01
1.037608654196011948e-01
-7.199810262382436155e-02
-1.598066520033286086e-01
-2.647388853183769708e-01
-4.421824259405801039e-01
-4.926058825699505817e-01
-5.099957285996823408e-01
-5.757122355372341627e-01
-6.170222359821097013e-01
-7.503195730308747091e-01
-7.390974222792503490e-01
-8.221299284875052127e-01
-8.053238598073120258e-01
-9.364717317857536028e-01
-9.306277778151180735e-01
-8.599089166103228710e-01
-9.627679786243714677e-01
-9.710623374589637535e-01
-9.934883956386063586e-01
-1.025407483289169086e+00
-1.164718389624194828e+00
-1.137184731778590807e+00
-1.189695749012023684e+00
-1.198063215342709542e+00
-1.204149414954602815e+00
-1.275709911126960083e+00
-1.316704441419645377e+00
-1.174220248854063176e+00
-1.251187051680796802e+00
-1.223204425872668866e+00
-1.194241465077350295e+00
-1.062626672346291823e+00
-1.088107651880230620e+00
-9.372214719171575448e-01
-9.104077502287788448e-01
-8.360677833760516986e-01
-7.585012198582526954e-01
-6.189283848836167889e-01
-6.235935705905442106e-01
-4.983036788709422904e-01
-5.736790140348825284e-01
-4.962994407237606431e-01
-3.835104442571251049e-01
-3.464605942159275642e-01
-3.448043937996548292e-01
-3.530068621738702284e-01
-2.272559999759707627e-01
-1.729087377549951565e-01
-1.105525937290911531e-01
6.224079264468795197e-02
1.181409319483202325e-01
2.243330319654595062e-01
4.220999724936661535e-01
3.576493529827111661e-01
5.671944812718962003e-01
6.508200458089506979e-01
7.468837854993303216e-01
7.653194961473659408e-01
9.361158214985099146e-01
9.314480999137109141e-01
9.306272245472664295e-01
9.690103228516857570e-01
1.092762555569098293e+00
1.163341630673746518e+00
1.067466580136079646e+00
1.122318666978913360e+00
1.030617816734018977e+00
1.222175791723335125e+00
1.200591133148356082e+00
1.287911555116917350e+00
1.282013080609738509e+00
1.303935043371288405e+00
1.406619952098387305e+00
1.410963784164186219e+00
1.493795494782473421e+00
1.464961558660262009e+00
1.459031517960387214e+00
1.382705436129296306e+00
1.366013575983570982e+00
1.448555523554879043e+00
1.253785489016995269e+00
1.282381378030544195e+00
1.244708888485515974e+00
1.146582897550336266e+00
1.068232033803418357e+00
1.038661076994671806e+00
9.202677102318158608e-01
8.419684301977620189e-01
8.096615805492888285e-01
7.823070798952217464e-01
7.041288352330147271e-01
5.835670661564453798e-01
6.695008187354360985e-01
6.583876379331604634e-01
5.305825055352513253e-01
4.290933868609465573e-01
4.078817804865871866e-01
3.848634796564679994e-01
2.448203387710422285e-01
1.585973407097100996e-01
9.668705857733889131e-02
-1.353968940166261348e-01
-7.691810104014362715e-02
-1.851842597633376053e-01
-3.695478280648676339e-01
-4.151624599643845004e-01
-5.589176588563516956e-01
-7.041272557910934760e-01
-6.427697730855577163e-01
-6.893334935343444769e-01
-7.196463179192520432e-01
-7.943419680018416473e-01
-8.589800804497996767e-01
-8.524206719269329380e-01
-8.313301834187927231e-01
-9.352439398880125765e-01
-1.049418294931510065e+00
-9.316012267041597905e-01
-9.795871795377302238e-01
-1.059980637994049957e+00
-1.080503521052988969e+00
-1.065096522879592777e+00
-1.100324600578630685e+00
-1.239878395327731697e+00
-1.256814733002026063e+00
-1.335454036414904566e+00
-1.294546147229078903e+00
-1.213310603573522606e+00
-1.201482931137727972e+00
-1.205234293869336559e+00
-1.192285272721755440e+00
-1.138872448468439380e+00
-1.034641885901077085e+00
-9.421742699721763481e-01
-9.299375681034446339e-01
-8.003958829502760830e-01
-6.725209508843335016e-01
-6.937198915196158833e-01
-6.407417830354054100e-01
-5.853776806174139091e-01
-5.212249267883855008e-01
-5.172454640416692673e-01
-5.544010878163070366e-01
-3.866954494923973140e-01
-4.789383280021337619e-01
-3.217639031687813955e-01
-2.331414847122253720e-01
-2.171773267064351920e-01
8.060585533337633057e-03
8.010670620938772912e-02
1.724554962831551241e-01
2.942630852755978577e-01
2.870595726871688624e-01
4.446160509082299206e-01
5.507226742469770731e-01
6.273180125909328941e-01
6.467998853489700384e-01
7.663339312606360920e-01
8.771890214617915627e-01
9.342846990695056197e-01
9.590967639287635293e-01
1.017560463948161020e+00
9.885779511967808242e-01
1.131907828527478621e+00
1.037907142475525957e+00
1.045020213414882049e+00
1.187350265291939211e+00
1.110171944177512415e+00
1.271562678825664428e+00
1.176328301599032011e+00
1.260242750688613578e+00
1.295424950578309975e+00
1.338724042110210677e+00
1.379855190455383074e+00
1.371862848674026969e+00
1.403720832748918568e+00
1.437822999406135560e+00
1.505124361615383100e+00
1.446434762091145299e+00
1.404000532385522027e+00
1.336990559823377778e+00
1.252614536686567748e+00
1.174874965138035909e+00
1.111680358366514021e+00
1.039671330637748303e+00
9.434275596088836924e-01
9.416783962940604713e-01
8.141805782165326688e-01
9.261415511441980497e-01
7.081364708216735249e-01
7.271935768699524516e-01
6.465862751259532359e-01
5.946047873362332314e-01
5.140507015942920033e-01
5.035446340252414110e-01
5.159492844713745585e-01
3.894068747143201170e-01
2.487870650269579098e-01
2.709657098812154330e-01
1.950170948399120030e-01
1.134655987882249306e-01
1.091863040011076258e-02
-8.580937179422730432e-02
-2.223799580856102853e-01
-3.598349079261631833e-01
-4.617185219371711113e-01
-4.652889764849484910e-01
-6.587870049634051428e-01
-6.540645856008182601e-01
-8.551353047802657814e-01
-7.882211501419533750e-01
-8.130304173697330272e-01
-8.462020851450569037e-01
-8.200028137769234116e-01
-9.055415416409962059e-01
-8.580156653538197897e-01
-8.833436604620877874e-01
-1.059214190093205721e+00
-1.033700241696796862e+00
-1.032541272023194567e+00
-1.129683393496050403e+00
-1.155297458343369055e+00
-1.156739312312922374e+00
-1.235695045191158137e+00
-1.311952086000457651e+00
-1.239151555887057166e+00
-1.323829168802893808e+00
-1.246765239260714919e+00
-1.293167114903721604e+00
-1.072630950690853124e+00
-1.197846387800642454e+00
-1.033041502284944180e+00
-1.117529793100957347e+00
-1.036197760286077019e+00
-9.204942464729926055e-01
-8.140338923412421268e-01
-6.751661654139479163e-01
-6.731309946038509517e-01
-6.076881525475837931e-01
-5.656511541671349619e-01
-4.759170005107359880e-01
-4.575660174955709092e-01
-5.080667040240443022e-01
-3.926636088963849081e-01
-4.337693391771672013e-01
-3.098425068186249076e-01
-1.849063448120674136e-01
-2.231847083547296440e-01
4.861474611543759039e-02
1.019501994377399051e-01
1.398638560941503628e-01
2.569098633796401132e-01
4.073887075441826600e-01
4.526123805433899805e-01
4.999116641829361996e-01
6.690072245704598020e-01
7.193039124389027927e-01
7.780570016098301567e-01
7.645367065785555472e-01
8.984009133571738692e-01
9.577466105152935283e-01
1.008708361713010149e+00
1.070502122542826617e+00
1.073819313085239369e+00
9.533708662854903926e-01
1.127041849009573715e+00
1.167852901301962731e+00
1.174295686022051033e+00
1.212413792376493715e+00
1.114440138602220909e+00
1.307830453274978266e+00
1.332053122833019687e+00
1.372578169073101595e+00
1.367188595280627972e+00
1.444517264832720249e+00
1.462554172151685483e+00
1.450878545660654551e+00
1.449861469119615665e+00
1.383713453379745717e+00
1.351766315967582344e+00
1.267937629457682291e+00
1.212257495752961711e+00
1.177349796322639142e+00
1.107954193552038946e+00
1.012644345179995575e+00
9.022925009394837659e-01
9.159147388810751078e-01
8.508877567442412193e-01
8.464614702582827777e-01
7.020101465817861763e-01
7.257991898719718948e-01
6.573124639426652926e-01
5.559440400452468900e-01
4.759368931328269436e-01
5.933645879263864664e-01
5.043999857429449785e-01
4.123489496078768801e-01
3.579030713975427935e-01
2.870936831295307079e-01
2.235501646213425841e-01
1.402192192439124241e-01
-7.221957319377739215e-02
-2.215737017422939326e-01
-2.436932751617714166e-01
-3.624935480916484098e-01
-4.505155500581699002e-01
-6.229318717947881501e-01
-6.799848073833483220e-01
-6.168351946090695481e-01
-6.192345738245850217e-01
-8.596042035832855976e-01
-7.786213632365441839e-01
-7.994000753156986772e-01
-8.515565551058048577e-01
-8.317568638861864150e-01
-8.949582522314714073e-01
-9.530287869846431059e-01
-1.039503733364894877e+00
-1.034847106583077769e+00
-1.031274907450909328e+00
-1.058346658190655543e+00
-1.061919850769166063e+00
-1.248346311930979224e+00
-1.190961968219159228e+00
-1.295446123796093030e+00
-1.237442205418476826e+00
-1.280133242587102815e+00
-1.304028392017965832e+00
-1.257517856055930139e+00
-1.221514718097058916e+00
-1.139236327471228494e+00
-1.111883863517780568e+00
-9.924933378459374067e-01
-9.342023545860842493e-01
-9.939238949633649733e-01
-8.520641818009359048e-01
-7.456174562414036311e-01
-6.521967965740622653e-01
-5.429470361673049972e-01
-5.489124707913313195e-01
-5.108342584740336312e-01
-4.482378063240397004e-01
-4.977546676002164716e-01
-3.608886016806153729e-01
-3.049372283043230714e-01
-2.568636336453848923e-01
-2.548772383522912577e-01
-1.876599707435049058e-01
-5.994473460824031874e-02
9.505312931997561554e-02
1.609099137395086920e-01
1.629198008452683588e-01
3.074090524243401901e-01
4.667920268273201834e-01
4.824480470534964205e-01
6.891496220452516530e-01
6.772009674005512458e-01
8.204380710547866107e-01
8.130275467679202173e-01
9.782309107229206768e-01
9.591444955919421478e-01
1.003437789891084231e+00
1.034544278103170400e+00
1.008926576055968249e+00
1.091230720769420737e+00
1.015490656827966909e+00
1.092093393606871077e+00
1.154653724646872437e+00
1.090729741663139407e+00
1.210401758586130416e+00
1.250837830601725376e+00
1.310952854307379400e+00
1.414921065713667270e+00
1.429158866917293880e+00
1.370058773019431353e+00
1.445897825139356163e+00
1.484377447738435940e+00
1.455218371884449358e+00
1.461242515620171822e+00
1.403659163975194302e+00
1.331156374025250555e+00
1.239058235210191095e+00
1.130664341381396376e+00
1.186732670541263523e+00
1.017380833456287492e+00
9.482931050871042933e-01
9.464122720284199319e-01
8.141992607525766479e-01
7.696243744866916314e-01
7.309733575393252414e-01
7.711225953386889875e-01
6.780928987667194097e-01
5.834066851211895388e-01
5.859985514388875716e-01
4.683509580016398943e-01
4.344416796680760640e-01
4.786182434767252136e-01
3.936528562468056269e-01
1.857729092905570090e-01
3.330641786008904648e-02
-2.774911726730860950e-02
-8.271427619525205388e-02
-2.147994877930385904e-01
-3.029345546509510934e-01
-4.015959471300324934e-01
-4.885345935238039616e-01
-4.954564838869071064e-01
-5.689540014124897516e-01
-6.826400733875258586e-01
-7.322831489943691929e-01
-8.430302112521180780e-01
-8.980024006239801793e-01
-8.939266676727072314e-01
-8.955290425489137451e-01
-9.168511222553873408e-01
-9.132082058831587634e-01
-8.776723475717859158e-01
-1.020597567524916593e+00
-1.025077429419714470e+00
-1.043546210851038047e+00
-1.110114606073117516e+00
-1.249565250433650521e+00
-1.189184927109833589e+00
-1.239513033164481692e+00
-1.312476944975793369e+00
-1.253307432627544848e+00
-1.232936521830017451e+00
-1.276901879551150643e+00
-1.244842690612932845e+00
-1.217123602248979530e+00
-1.122931322726902659e+00
-1.060329871043966810e+00
-1.157432110524738267e+00
-1.006708519642162125e+00
-9.138977697395886945e-01
-8.224031347609725984e-01
-7.371947886846736964e-01
-7.311065953754506408e-01
-7.190047480849778294e-01
-5.533932971476575036e-01
-6.138916558241023225e-01
-5.649111592009056215e-01
-5.262484499666419957e-01
-4.566965345581910363e-01
-3.712226671114619569e-01
-2.674509196617988471e-01
-3.616062537936866050e-01
-1.293386505838548528e-01
-5.782632661704291410e-02
5.503990095615779454e-03
2.103779237685873826e-01
1.404537858687897045e-01
4.100753817317257521e-01
4.610483864014334743e-01
5.365599298370746784e-01
5.758984387801967531e-01
8.038207610279747284e-01
8.236133528592349817e-01
9.588652448267297457e-01
8.766512523975491522e-01
9.716255126786953467e-01
1.083817666673996039e+00
1.049795931625185919e+00
1.079287112413258587e+00
9.787216517920171999e-01
1.088346773004780443e+00
1.043201769226269615e+00
1.170241109319043238e+00
1.171280113119890220e+00
1.288974440007318423e+00
1.187913094486133803e+00
1.276533295243595267e+00
1.314011693221156740e+00
1.315374400968785773e+00
1.428855854479478049e+00
1.375867381180315485e+00
1.386959534378848780e+00
1.418805737919770271e+00
1.380678086107177238e+00
1.333561938406750524e+00
1.323612093415424296e+00
1.330841133545635380e+00
1.112171064889490690e+00
1.110871745792587628e+00
1.041030734075805597e+00
8.811968339544544726e-01
8.716731516815244829e-01
7.815972268441513382e-01
7.749124427814515492e-01
7.731051868473743927e-01
6.798551641829008174e-01
6.165809536517291578e-01
5.338333918928549471e-01
6.090858429692705966e-01
4.559015814482826334e-01
4.777808844375313613e-01
3.370919273558304341e-01
2.847696700737981090e-01
2.354018454387662163e-01
7.822710792215301079e-02
-1.187004809032626840e-01
-6.592610202025504795e-02
-2.383641096565679574e-01
-3.787643865102214291e-01
-4.683019554960682340e-01
-4.379123889841540218e-01
-5.926844747889936649e-01
-5.998531960350281800e-01
-6.805455584373113487e-01
-7.585708872930868596e-01
-9.512356890384090491e-01
-8.064557401724140595e-01
-8.063155488084854383e-01
-8.675679116065406760e-01
-8.955851217476961112e-01
-9.533274792687571608e-01
-9.809722974258094919e-01
-9.738778408109186602e-01
-1.164030343693026603e+00
-1.062812536177754508e+00
-1.139012542662950933e+00
-1.142823169173746933e+00
-1.282283994168059937e+00
-1.281910080854148593e+00
-1.184943146924029467e+00
-1.284690548763159246e+00
-1.318161242804721578e+00
-1.422296805360709238e+00
-1.247094820608953158e+00
-1.273310162622387276e+00
-1.287061811388617194e+00
-1.119856167175676376e+00
-9.537647704576149854e-01
-9.845000403781732912e-01
-9.157661732109853014e-01
-8.024959772889946885e-01
-7.554817959011360662e-01
-7.505727397962652647e-01
-6.358016589644346350e-01
-5.855325703916234303e-01
-5.897087112999328529e-01
-5.050534643219085629e-01
-4.269987090163498422e-01
-3.409245575706952858e-01
-3.645926381114109049e-01
-2.675677896233703557e-01
-2.500795116231645521e-01
-1.256429880275536370e-01
-6.161027217932923267e-02
5.812395915969939542e-02
1.445224891866329908e-02
1.281212682442060546e-01
3.472349198556895500e-01
2.875067519453741172e-01
6.673143600517043028e-01
6.925801064421245323e-01
7.712518771960775732e-01
8.332929153960120239e-01
7.503696614665686937e-01
8.301900215435595864e-01
9.060166293189552134e-01
1.018402976396151960e+00
1.023837176692661277e+00
1.009122365862854309e+00
9.622502312959095860e-01
1.095542309082498500e+00
1.023977924303197007e+00
1.045997584351589849e+00
1.173603654347801895e+00
1.090699317527144663e+00
1.270610772827665880e+00
1.300635418014927991e+00
1.268022919564652629e+00
1.355454182306813360e+00
1.431464746300715518e+00
1.423209449243140412e+00
1.455280066160272723e+00
1.440951770447216118e+00
1.434276425362198015e+00
1.360159761909834897e+00
1.228875293378006939e+00
1.165510179889312381e+00
1.195440271544760069e+00
1.024450933519368334e+00
1.098133711716430039e+00
9.632404271586992861e-01
8.966599242424625471e-01
9.344043810699513841e-01
7.436369870541469362e-01
7.081505568456861743e-01
5.415814097700100138e-01
6.717473566677529817e-01
6.003910593104713200e-01
5.206012078115687114e-01
4.876469103892137058e-01
4.469318589675358999e-01
4.286369033989180233e-01
3.494509802728751335e-01
1.525938885904846165e-01
1.323147720619858025e-01
1.695734507508313629e-02
-3.204253633936798851e-02
-1.805979897142292734e-01
-2.599516064318895259e-01
-4.009316378933018288e-01
-4.889709502561138676e-01
-5.442460819793009108e-01
-6.726607065529490725e-01
-7.163075630144998263e-01
-8.107512189114861600e-01
-7.735977953817282371e-01
-8.611821631284902745e-01
-9.147472086202023123e-01
-9.294878798519297103e-01
-9.613148155734136946e-01
-9.572556609011954043e-01
-9.816770290410158362e-01
-9.687167849150554177e-01
-9.852209998951069192e-01
-1.076781131019167947e+00
-1.170320675589075821e+00
-1.152506765029175595e+00
-1.238209914816808199e+00
-1.267618562974897056e+00
-1.284396702606056762e+00
-1.281549593544608401e+00
-1.259741422236985375e+00
-1.305996777471113424e+00
-1.278330588343948637e+00
-1.129960677522160228e+00
-1.276974462175256786e+00
-1.034877641188470587e+00
-1.016564098259282067e+00
-9.159964760822814078e-01
-9.244274172359828734e-01
-8.598723837957529259e-01
-8.238466861278076481e-01
-6.867708361255805416e-01
-6.317618331948690047e-01
-5.461251747339982421e-01
-6.446570724687019638e-01
-4.931306912990434110e-01
-4.875976716238092368e-01
-4.070273936384958824e-01
-3.766151429200602085e-01
-4.210650844283937433e-01
-3.186047142601040605e-01
-1.134079155693838992e-01
-1.373693190052654167e-01
-3.351969178872857974e-02
2.095200111511000274e-01
2.027380905466810157e-01
2.728144049864721365e-01
5.020248779982446896e-01
4.633622450918635227e-01
6.233244139544040774e-01
6.854125498742025258e-01
7.180953465141655112e-01
8.163877166763136017e-01
7.943013136727536949e-01
9.877226842682584884e-01
1.062999731296705219e+00
9.993636210575610468e-01
9.897418801420559964e-01
1.014170115207164269e+00
1.086533719159016975e+00
1.087748620237741104e+00
1.167181299087795443e+00
1.180605137633447654e+00
1.186804636528461243e+00
1.278154284964512222e+00
1.251931807003142882e+00
1.326634225043980875e+00
1.326249615653350755e+00
1.373189011890639133e+00
1.402374091665223865e+00
1.422545013896933996e+00
1.383218013803667601e+00
1.499831428488699991e+00
1.167209756551280897e+00
1.311108469172228785e+00
1.157902114348132283e+00
1.125785301850851461e+00
1.056978691705797502e+00
9.757916440634261113e-01
9.261809696384210033e-01
8.376533960114393995e-01
8.662423875350868663e-01
8.732448894508193504e-01
7.250199734870587109e-01
7.173733576225098663e-01
5.650788340031815959e-01
6.249816874151106205e-01
4.958404138489238000e-01
4.758947525539048984e-01
3.993068541740001365e-01
2.947076586014026334e-01
2.901488168325329631e-01
1.904102849263881736e-01
7.263728986452878955e-02
-1.151883316820880368e-02
-1.612355404385264201e-01
-2.383209055049443359e-01
-3.408203560219798534e-01
-3.959566425395624201e-01
-5.206014688317247563e-01
-6.692725375668695520e-01
-7.070592050330388734e-01
-7.470730029071341871e-01
-8.102470344413666981e-01
-7.786665010879244564e-01
-8.859339653858826491e-01
-9.752673759059210523e-01
-9.166180809048684042e-01
-8.898956887162783325e-01
-9.521383989678080528e-01
-1.012599675446478109e+00
-9.809797449298955918e-01
-1.075521587727675810e+00
-1.180954633931522668e+00
-1.146057408461262028e+00
-1.130668781234355658e+00
-1.164417149896022297e+00
-1.283109331801506547e+00
-1.366252789120137034e+00
-1.250011106738103672e+00
-1.319272355753237314e+00
-1.337952419898746470e+00
-1.344670216074967062e+00
-1.293861232861943877e+00
-1.137608984651518496e+00
-1.151308578704729246e+00
-1.099274833243696570e+00
-1.043125307860586437e+00
-8.804876247649593424e-01
-7.996850811583717800e-01
-8.319081929775560269e-01
-6.758907280116722704e-01
-6.974270443813550546e-01
-6.544819071437458780e-01
-6.225851271691025257e-01
-4.906059133643689840e-01
-5.347556284230923218e-01
-4.179024001814116152e-01
-3.771767434889417014e-01
-3.752415192907984642e-01
-2.887249652538482203e-01
-2.707911202032532438e-01
-2.338445245982323506e-01
-6.015363910129184477e-02
1.495236408093583713e-03
1.966717815791940438e-01
2.687449443121496806e-01
4.238356203292243940e-01
5.070235554319993954e-01
6.012185546630018917e-01
7.439871452813140440e-01
8.518467650692815862e-01
7.450947226852290273e-01
8.625117786667882980e-01
8.674411595277725651e-01
8.409811947877052773e-01
9.516787369831121168e-01
9.999325029700085743e-01
9.374974471863539716e-01
9.349916426615456633e-01
1.032400094270203406e+00
1.183521829061570108e+00
1.130056809038541887e+00
1.230257027605365039e+00
1.235411157369618040e+00
1.309629888313928348e+00
1.281224180641518995e+00
1.388089764013675564e+00
1.417001251028782605e+00
1.367072849824117142e+00
1.375301402450454846e+00
1.410894422825317740e+00
1.389419417079555519e+00
1.368251473439962451e+00
1.252571898578829224e+00
1.171543831635727839e+00
1.187916058315422907e+00
1.037505262943084761e+00
9.922389265599985686e-01
8.137662233964650937e-01
8.615894426113712701e-01
8.110554296465725121e-01
7.455449263899389667e-01
6.599984520733060966e-01
6.701659942273588966e-01
5.955907472116251933e-01
4.947897210694017223e-01
5.832958971261582581e-01
4.914792905144219071e-01
5.199610419574284270e-01
3.131058196780667213e-01
3.165356862339131494e-01
2.439130991420808692e-01
1.380286209371127670e-01
-2.176529133111210212e-02
-1.467180516506046695e-01
-2.198506791547275296e-01
-2.331562545889404592e-01
-4.380264016225117185e-01
-5.409238267727767280e-01
-6.194333667431243251e-01
-7.188939306942967455e-01
-6.914323038126026777e-01
-7.977278168188202123e-01
-9.072215799748808429e-01
-8.469280036023273395e-01
-9.706160509019061688e-01
-1.010329462535925371e+00
-9.724302257831873852e-01
-9.501841058045207289e-01
-1.019912683050966606e+00
-9.788779484471765713e-01
-1.073349256321419976e+00
-1.019462946811743986e+00
-1.105278238925918144e+00
-1.177590330001114793e+00
-1.299025370854115513e+00
-1.240681241778238908e+00
-1.288524131461702638e+00
-1.366108031371046971e+00
-1.389292494405694134e+00
-1.283577652317401174e+00
-1.379216717834929051e+00
-1.193310013967693761e+00
-1.233170258799957564e+00
-1.139887754801099939e+00
-1.073770440385369618e+00
-9.717724032624300845e-01
-9.925745279027650136e-01
-8.830819810791519231e-01
-8.669247676747707798e-01
-8.223394160825630017e-01
-6.511844285981038816e-01
-7.350781880607695218e-01
-4.934616120741341927e-01
-3.661015342271456419e-01
-5.568900500843273482e-01
-4.468276067398915807e-01
-3.691576722854361114e-01
-3.922101458482168956e-01
-3.639554349263151023e-01
-2.068748319651083356e-01
-1.878352703835999837e-01
-1.186235513048371770e-01
5.760500630786852261e-02
1.291655011896148952e-01
3.232615113658389716e-01
4.207273710014223234e-01
4.874624123301428691e-01
6.468372968367795961e-01
7.141793713644672970e-01
7.548423258552963144e-01
8.160095321052472928e-01
8.503240251561468011e-01
9.259406703380350656e-01
9.120405503963824323e-01
9.023132211920102952e-01
1.015181879376922724e+00
9.914998784082119654e-01
1.027759772906944757e+00
1.080905337857594350e+00
1.111937503873376087e+00
1.036217489370286682e+00
1.205526342860512745e+00
1.166993825722186573e+00
1.280294822162699742e+00
1.255704921478294711e+00
1.375598111218383934e+00
1.299934953203839338e+00
1.385978764704931310e+00
1.420463395358757763e+00
1.354753162340880834e+00
1.387217712230199851e+00
1.233288346493622845e+00
1.262706026575993290e+00
1.250170336211601230e+00
1.106156814491801033e+00
1.043445102566749716e+00
1.056330761564862275e+00
8.041858355211082277e-01
7.111312142759822486e-01
7.474977960790473164e-01
7.748704103965230461e-01
7.196401595184785949e-01
5.802613305539204847e-01
6.148182299324811417e-01
5.422112151365087174e-01
5.452464446824564215e-01
5.874324844328817630e-01
4.743209565099302805e-01
3.264238648961843015e-01
2.854790912029259164e-01
1.977877426865041754e-01
1.218707823214470187e-01
-1.000798305917472986e-01
-1.581355946567778170e-01
-2.237163099994436410e-01
-3.475397036414539231e-01
-4.215563165998177375e-01
-5.794177309902055484e-01
-6.599132187191706356e-01
-7.754176131040184661e-01
-8.070593091972536604e-01
-8.668562372704694541e-01
-8.324695590086722552e-01
-8.947877424664365531e-01
-8.886772523757199282e-01
-1.017101651940500728e+00
-9.080454576844898540e-01
-1.032094849659413338e+00
-1.028598689829097523e+00
-1.083766541629337388e+00
-1.050262579479875669e+00
-1.144183909355704243e+00
-1.213175579708929641e+00
-1.164972943115880621e+00
-1.266388856966241816e+00
-1.132531200351457157e+00
-1.356055334292869397e+00
-1.287064685565705968e+00
-1.341653069355780215e+00
-1.241471190634157784e+00
-1.409942417094796063e+00
-1.311641528706551041e+00
-1.265156247980352422e+00
-1.181766136376784182e+00
-1.081927395341908849e+00
-9.407008229610009931e-01
-8.927514028696323933e-01
-7.795258192105419814e-01
-7.395478690622625528e-01
-7.215534284706491830e-01
-6.827877624537734835e-01
-5.765924636112877977e-01
-5.932521523275642306e-01
-5.737351413030498115e-01
-4.792416386940352435e-01
-4.420344181471839717e-01
-4.875760404532259451e-01
-3.977596812945746740e-01
-3.739813890810750330e-01
-1.472225644035927150e-01
-1.986807163739667259e-01
-2.233759087382649125e-02
1.212618464216180802e-02
1.325763427140749795e-01
2.910197606896923750e-01
3.709232478223168372e-01
4.701375883057084537e-01
5.785549854386338176e-01
7.237513656534187989e-01
7.383554682343771436e-01
8.638467835976003650e-01
8.614930249229085790e-01
9.785830837720259634e-01
9.246957397754085317e-01
9.312497093301957962e-01
1.045971271461184182e+00
8.965581776168551897e-01
9.497009577799663260e-01
1.069785782961989895e+00
1.078532955277023753e+00
1.157815433570989372e+00
1.197185165637313142e+00
1.233291783160837651e+00
1.228946868340448972e+00
1.276891259696874892e+00
1.360648461114051466e+00
1.469872382354466378e+00
1.342977636729780322e+00
1.435658531782202818e+00
1.388136327516789725e+00
1.406366655980304747e+00
1.231789539045685666e+00
1.248245180984813185e+00
1.141611285602291748e+00
1.137816156404304113e+00
1.094202044686182873e+00
1.009355083781690698e+00
8.774793371237367134e-01
8.682134968949254406e-01
8.385648251578926571e-01
7.131573302010558724e-01
7.117262947260689643e-01
6.937655948788524762e-01
5.729772064091943617e-01
4.098607597428819416e-01
5.037756147876903956e-01
4.467934142387721685e-01
3.769266083393509326e-01
2.807178896080891883e-01
2.787890716950345293e-01
2.266413390582491805e-01
1.205454740923751766e-01
2.948858637897275314e-03
-1.657312518298872384e-01
-3.144457878003127926e-01
-2.914379865433702754e-01
-5.097333072732622705e-01
-5.672552927643367271e-01
-6.418046552713658759e-01
-8.340654296524854239e-01
-8.145894256842012293e-01
-8.014473358580026519e-01
-8.800602830585003700e-01
-9.893564902027384145e-01
-1.007107229734154119e+00
-9.262177923399605994e-01
-9.706496286121533146e-01
-1.058389645759297837e+00
-9.436774623844994547e-01
-1.025146395783216535e+00
-1.118847354721689280e+00
-1.187273393015814360e+00
-1.073884309335629172e+00
-1.249764188128061226e+00
-1.173862434365786411e+00
-1.312412796601223564e+00
-1.378928217365910980e+00
-1.353778146250629089e+00
-1.298128631478163042e+00
-1.318274551015176543e+00
-1.279324998560862570e+00
-1.213784762616112900e+00
-1.169196165030344403e+00
-1.131814046844253463e+00
-1.153826295559202908e+00
-1.111853794286116859e+00
-9.633545963940338686e-01
-8.753427148181236461e-01
-8.628840231214244261e-01
-7.519927896784344146e-01
-6.927561548142932013e-01
-7.556881998497871900e-01
-6.274196821648189148e-01
-5.238865963556852412e-01
-5.370568783425839765e-01
-4.857254413720017427e-01
-4.501877028141988424e-01
-4.485376793510670868e-01
-3.224320419490910861e-01
-2.549140712407959586e-01
-1.668235634178810711e-01
1.648291403500558305e-02
1.619918473686557392e-01
2.333525150292729833e-01
3.020690507353994692e-01
3.326344457255523412e-01
4.300648404393189184e-01
5.416923353337902425e-01
7.699612272924979406e-01
7.630212813454738674e-01
7.538262231522675494e-01
9.325456366751243564e-01
9.371884679917257266e-01
9.014947818608897157e-01
9.656336299140609869e-01
9.656848107727507013e-01
9.976567820573898349e-01
1.038953164700502363e+00
9.831757790600819114e-01
1.034014639274502212e+00
1.126915320738477222e+00
1.128888965014690493e+00
1.265064235187040476e+00
1.205919609140596149e+00
1.428665652716548218e+00
1.377704653863899065e+00
1.352265197327683577e+00
1.383110885867814499e+00
1.299728886372894632e+00
1.386311620600729100e+00
1.318653511321300265e+00
1.208114215902718946e+00
1.294181728695774858e+00
1.215805581698379045e+00
1.099901096574590786e+00
1.054460402392054963e+00
1.005773943567115136e+00
8.426586217925343680e-01
8.267395541512067014e-01
8.199021261993379994e-01
7.131427838543019648e-01
6.878338396068246485e-01
6.358376894523316558e-01
5.245631826520236185e-01
5.555792159757028115e-01
5.156136704720302166e-01
4.773451876408669747e-01
4.206069664040709144e-01
3.972297768050702116e-01
2.112232856255097102e-01
1.408660533082237709e-01
4.218313701153759282e-02
3.638775804931454472e-02
-1.875488601173719294e-01
-2.964141969330749138e-01
-3.559163607021952336e-01
-4.870993063812886215e-01
-5.276736247320967799e-01
-6.034664883216696030e-01
-7.417845085114799231e-01
-7.518334570122277016e-01
-9.110542325262538377e-01
-9.097331859058599424e-01
-9.509694700792390432e-01
-9.019440680276258337e-01
-9.506208521736311257e-01
-9.688819127975238921e-01
-1.066063063622215479e+00
-9.703568790008426648e-01
-1.154970662282295946e+00
-1.085144476741071395e+00
-1.184116056086968127e+00
-1.172816761278766329e+00
-1.248980834905619286e+00
-1.362598025330478135e+00
-1.291311472817330053e+00
-1.369201091249856450e+00
-1.363272223783832171e+00
-1.419431112146487095e+00
-1.427355153204274307e+00
-1.315326058805155185e+00
-1.320034037058784193e+00
-1.222859972204916712e+00
-1.106148886330995174e+00
-1.187996535821009392e+00
-9.970950608445989793e-01
-9.484447716435518982e-01
-9.012442299554898062e-01
-8.539029769785327906e-01
-7.790795973800053176e-01
-6.592168636604340826e-01
-6.648738987473057360e-01
-5.669410343164325017e-01
-5.838485711570406966e-01
-5.597758031572627191e-01
-5.698169813628670699e-01
-3.915976621789177825e-01
-4.758541862969142278e-01
-3.062045268109632179e-01
-2.277691837141181397e-01
-1.998461306990751973e-01
-1.062361247865763747e-01
8.590696953264136126e-03
1.300270886165450224e-01
2.013937249603217905e-01
3.650810284766581315e-01
4.625936705801342308e-01
4.876892205247791434e-01
6.206712901789558368e-01
7.534500273215618549e-01
7.818492881003197281e-01
7.939604214210030930e-01
7.969010303213743818e-01
9.328887436663672039e-01
9.111324425779686598e-01
9.369832288264288156e-01
9.734562240101404251e-01
9.921182865601934076e-01
1.059374791953894945e+00
1.027766021560383214e+00
1.086026839245610276e+00
1.142771525164231194e+00
1.108131245776641238e+00
1.141475378433439047e+00
1.267717109123368546e+00
1.325589841097828847e+00
1.252349962700228359e+00
1.363626623743499966e+00
1.280749282895318863e+00
1.445220617835750065e+00
1.349816986121049833e+00
1.260569121527337799e+00
1.163034846766320962e+00
1.139481473715691306e+00
1.068463949738850172e+00
9.424542342795136918e-01
9.701414719030519995e-01
8.517007120005661847e-01
6.672707022821229295e-01
6.612491335846684137e-01
6.782155321247842483e-01
6.497966092334017674e-01
4.831108444479015884e-01
5.755673613192509031e-01
5.474556816580044005e-01
4.854215006880236438e-01
4.408260951215721701e-01
4.576554680206756931e-01
2.304515252958238003e-01
2.756894929523646121e-01
1.194516005628645933e-01
9.670505012670981004e-02
4.199011675458388937e-02
-1.478757418255053913e-01
-3.408026925818395947e-01
-3.670044982394752298e-01
-5.195100198018303139e-01
-5.502102064795402203e-01
-5.795597799920619853e-01
-6.643168061836615124e-01
-7.821596363467920865e-01
-8.455730308361125713e-01
-9.048018215408496490e-01
-9.394234428490825239e-01
-1.008500605169722064e+00
-1.020722181119547933e+00
-9.377720326592262623e-01
-1.099378350021350093e+00
-1.021010281649767037e+00
-1.063851130146439949e+00
-1.133606086279439484e+00
-1.154976091504242408e+00
-1.209388437737229260e+00
-1.239832427914902890e+00
-1.247571473162373490e+00
-1.354724051385503447e+00
-1.318661439764146959e+00
-1.317262481013531383e+00
-1.426710912841937740e+00
-1.406154707049682706e+00
-1.294725132571282078e+00
-1.225579612199672708e+00
-1.242262612687867085e+00
-1.281928896364509018e+00
-1.092865639563089131e+00
-1.081144866782268732e+00
-9.565171346121790208e-01
-9.083170195662442215e-01
-8.146560810905341121e-01
-7.736647276999742973e-01
-7.179786672016292837e-01
-7.354040517360989071e-01
-6.827343975778119578e-01
-5.809155276781564625e-01
-5.028509635646560838e-01
-4.836922040405078338e-01
-4.305489590936962263e-01
-3.615759224466643107e-01
-2.809800486388125962e-01
-2.187296853933164975e-01
-1.229599668664264761e-01
-6.441789281485808816e-02
2.372741555253821480e-02
1.195184015266421013e-01
2.925765464683467432e-01
3.279632752741599155e-01
4.128956541395270574e-01
5.617866660454915451e-01
6.271675428143883568e-01
7.117077745552409240e-01
7.388730421582381247e-01
7.867801676069933192e-01
8.305275081147912575e-01
8.765845186205759587e-01
9.213934372931186223e-01
8.948493840915064945e-01
8.792859105906802863e-01
9.028750196262270711e-01
9.864671903718450485e-01
1.050381995662529988e+00
1.037150762078081989e+00
1.046308935572682230e+00
1.134871442482196402e+00
1.208426730401150451e+00
1.216963311827578886e+00
1.350140913153555111e+00
1.277240317523329782e+00
1.366156067323218259e+00
1.347141788595503709e+00
1.284938731799616152e+00
1.300807042142557934e+00
1.310866776080078289e+00
1.255168813382224968e+00
1.114300755764221496e+00
1.038091492899863466e+00
9.848802577671467162e-01
9.284918442708952613e-01
8.497167222819201893e-01
7.232527948109321869e-01
7.700286075014695086e-01
6.561237183944553797e-01
6.397708743593655267e-01
5.758412429360010298e-01
4.949526188559117967e-01
5.555576023160435639e-01
4.232798533824612131e-01
3.029667851506807064e-01
2.904711478653188017e-01
2.926904313610846908e-01
2.164922649599055060e-01
1.098037861261223352e-01
8.167961607281677694e-03
-8.994482036502496336e-02
-1.553780717636805975e-01
-3.551391454140229720e-01
-4.302427035058245530e-01
-5.163929580031565436e-01
-6.227877332253589637e-01
-7.452809967647076039e-01
-7.435366532003252482e-01
-7.969422443515331578e-01
-8.034461590153657573e-01
-1.017806014351074317e+00
-8.712652656654622518e-01
-9.283460279052089259e-01
-9.995132140990621306e-01
-9.950758022653530821e-01
-1.044283671907058952e+00
-1.049358466858649086e+00
-1.109408885242527898e+00
-1.138620101710134724e+00
-1.107730366371454167e+00
-1.257362116921554529e+00
-1.266417336237706470e+00
-1.322442682325704943e+00
-1.311262893506719651e+00
-1.331556871883767368e+00
-1.439462823823829396e+00
-1.374613087101889786e+00
-1.268451969283882930e+00
-1.378692300797104364e+00
-1.365194240067845399e+00
-1.190587901150959693e+00
-1.178517703495013169e+00
-1.086303950837324228e+00
-1.042725016468629917e+00
-9.956216603523376785e-01
-9.149602394137366090e-01
-9.374041320678141442e-01
-7.327713807645470645e-01
-7.511460646724122947e-01
-7.360545945019434377e-01
-6.471486569292482782e-01
-6.624051645623066920e-01
-6.041257284563805730e-01
-5.091331998840112893e-01
-4.210393209569859851e-01
-3.790571467725423194e-01
-4.276733507183430594e-01
-2.280603129556261766e-01
-2.085745178525333920e-01
-8.409082068014880895e-02
-1.612094313262137438e-02
1.339957413966376409e-01
2.418886178853904556e-01
2.936958270865862586e-01
4.091407879894830013e-01
5.429190645189457820e-01
5.672550659287082242e-01
5.881350235393312254e-01
8.949862420656041762e-01
7.694877889473891175e-01
8.392851738889074431e-01
8.195174544727614752e-01
9.195294619806854142e-01
9.170584389935598768e-01
9.412527010001918715e-01
9.926777316516349758e-01
1.080706782468963345e+00
9.410745767633017511e-01
9.798413206236157302e-01
1.092540268899814260e+00
1.114577808931044078e+00
1.287393413281723964e+00
1.175734542498570345e+00
1.278957065763407508e+00
1.331719398362511297e+00
1.287569849707906666e+00
1.262002498181177046e+00
1.385447757713494266e+00
1.291638489391041755e+00
1.258008979380322856e+00
1.196783067142581869e+00
1.168356341241525209e+00
9.676280587475951656e-01
9.948593730203643126e-01
9.783895130919479932e-01
8.795963610413751743e-01
7.642074627071953064e-01
7.707953237284990156e-01
6.113326205867981589e-01
6.183443787593942975e-01
5.767228215291286819e-01
5.780568969224385567e-01
5.801321965274975900e-01
4.150881003883493681e-01
3.996032158142391877e-01
3.014421346526798828e-01
2.055696612288318292e-01
1.425691864871244108e-01
1.148753324888842076e-01
1.203254604937254758e-02
-7.511439369472958094e-02
-1.331704310239771316e-01
-3.106894052468918699e-01
-3.969515518277123567e-01
-5.240710750201053036e-01
-6.283242546108616100e-01
-6.891967515362801278e-01
-7.690950278246015959e-01
-8.426890990228105283e-01
-9.710900711915038119e-01
-9.169415455842980789e-01
-1.016142314064029550e+00
-8.953483545118018361e-01
-9.832710335053358452e-01
-1.017931619112162789e+00
-9.902326695944215773e-01
-1.081297498264691459e+00
-1.101391952138752961e+00
-1.137177663999701771e+00
-1.202845461778384806e+00
-1.140368721166229671e+00
-1.327078406078844308e+00
-1.434668661881248752e+00
-1.384748671786073526e+00
-1.379304112922163705e+00
-1.390487863207941821e+00
-1.431327631869625971e+00
-1.322136859906551276e+00
-1.288168099802835531e+00
-1.355505180081985284e+00
-1.382337131548780462e+00
-1.194716602628980606e+00
-1.125358744134380862e+00
-1.095387141221001448e+00
-1.009820803652017096e+00
-9.073870324894480754e-01
-8.632036349373020112e-01
-8.575668379078942305e-01
-7.850660090875483110e-01
-6.904616915252481668e-01
-6.844109157450599668e-01
-5.707748001374804980e-01
-5.952612646482027259e-01
-5.418160964991277639e-01
-4.790785103529608402e-01
-4.519584351917079745e-01
-3.729574409484474606e-01
-2.875893460753599640e-01
-2.323214225322942916e-01
-6.599702743088833867e-02
-4.992181544301123319e-03
1.460435515333786682e-01
2.496688369088375103e-01
2.619865707510973807e-01
3.456695210565758347e-01
5.814503799735816214e-01
6.311417599644633114e-01
6.323720186176574609e-01
6.685303285154607922e-01
8.557371460266640639e-01
8.222986539989606269e-01
8.017336533143802901e-01
9.216721038726709558e-01
8.035328049522865168e-01
9.194453987826998187e-01
8.949719977738628263e-01
9.594217118641938935e-01
1.017022236095134646e+00
1.075018491902362427e+00
1.050846392168704568e+00
1.084729657307101691e+00
1.192319744781152213e+00
1.257607111248820964e+00
1.211116392631799155e+00
1.269791239044935516e+00
1.223957774411805977e+00
1.319566287697856000e+00
1.316121491186946102e+00
1.328878971119724195e+00
1.240375800896592828e+00
1.088025203146318676e+00
1.123349259408417566e+00
9.367108432092636772e-01
9.411989463871385242e-01
8.874336684309122036e-01
8.949075115900720911e-01
7.650132871934578471e-01
7.571572675250851647e-01
6.259998429341664394e-01
5.540461006690354795e-01
6.228966828424891133e-01
4.817564301897623302e-01
4.815774926720412519e-01
4.834664874668577195e-01
3.192137105308356926e-01
3.784437496572922166e-01
1.996179939073006726e-01
1.660984400925321347e-01
5.532601529053764872e-02
-7.378394628427332666e-03
-1.250087064648981172e-01
-1.157747410202910610e-01
-3.200696564931291288e-01
-3.545169755331779582e-01
-5.169460780220468399e-01
-6.288247883810296202e-01
-7.770188296943922879e-01
-8.510870621941675207e-01
-7.655920504800473037e-01
-8.976512871993476139e-01
-9.535210677339752694e-01
-9.145280504829825796e-01
-9.235084261321564458e-01
-1.128475308832106450e+00
-1.037892972718435614e+00
-1.012162501088206712e+00
-1.096272806553293622e+00
-1.108964789444933263e+00
-1.087546002264687228e+00
-1.164298402869536231e+00
-1.251602997887951485e+00
-1.349146862870032937e+00
-1.323963834384529248e+00
-1.452999654563920107e+00
-1.410575466034736714e+00
-1.411024476181455878e+00
-1.399030708264163758e+00
-1.357956407124425890e+00
-1.450725524616569562e+00
-1.292267060690422298e+00
-1.303036116036596415e+00
-1.228386453715670568e+00
-1.143839323986768797e+00
-1.104737551774191751e+00
-9.970543882462253871e-01
-9.354383839398896505e-01
-9.018672185516497519e-01
-9.028891145378682426e-01
-8.048245992538534122e-01
-6.765071973892563539e-01
-6.300126994229275912e-01
-7.323799736966378759e-01
-5.625280405513539694e-01
-5.697604207878312899e-01
-4.359120629849677075e-01
-5.302283645122956024e-01
-3.552321956472875852e-01
-3.171026599658528511e-01
-2.814292700173410822e-01
-1.306170923631208014e-01
2.936009756377622876e-02
1.493408832717570411e-01
1.953019252170961895e-01
2.228072217079214434e-01
3.802808022209980821e-01
4.362244968401577383e-01
6.201188798945694858e-01
6.241666857225365295e-01
7.472373991210551347e-01
7.542697735064647357e-01
8.309058149027872542e-01
9.160161206975651060e-01
9.398142863553369253e-01
9.028654053397038304e-01
9.563011947191488726e-01
8.873339973492451183e-01
9.292277140949715131e-01
9.028285868755417942e-01
1.080620507134937736e+00
1.081390618992831509e+00
1.145960551982478703e+00
1.253522060068136712e+00
1.278504567735771369e+00
1.267066647855351169e+00
1.274584113760394155e+00
1.279049325024585793e+00
1.287124006217137184e+00
1.315952356781122878e+00
1.266529914273453405e+00
1.271081738705132302e+00
1.092100886125410675e+00
1.100179357134684954e+00
1.087006288930426168e+00
9.052533789058998526e-01
8.977462875103063844e-01
7.553191409592514560e-01
7.755358864332093649e-01
7.036491317962653147e-01
6.215661231034559364e-01
6.243828845838652608e-01
5.187307959536976432e-01
5.152604845857520210e-01
3.627430494073938250e-01
3.859949978277531502e-01
3.842994107508754253e-01
3.452562565727722577e-01
2.210644959012937338e-01
1.385829694584301552e-01
1.644379935495660361e-01
1.245739304651131626e-02
-7.491990887524124787e-02
-2.155039842995721266e-01
-3.628130519522976272e-01
-4.297727692731827531e-01
-4.967183396111976568e-01
-5.529903168499592514e-01
-6.807814076472999965e-01
-7.958655537288493731e-01
-8.960562785247536688e-01
-9.098320028486649447e-01
-9.929525747274930980e-01
-9.462830550553738007e-01
-1.011663544142561877e+00
-1.036168330210512911e+00
-1.018462927338336543e+00
-1.035905045342125463e+00
-1.064775789204971623e+00
-1.045723536052788338e+00
-1.121908194989377661e+00
-1.247086134067217911e+00
-1.174446765247736613e+00
-1.310659416629096796e+00
-1.308789171161262033e+00
-1.372175581367490294e+00
-1.437887269289341852e+00
-1.329822559901325807e+00
-1.464695444046392625e+00
-1.468230407285648464e+00
-1.381356258140431059e+00
-1.382777661837296002e+00
-1.261545466536579951e+00
-1.352451896059821523e+00
-1.245722370872572426e+00
-1.126964278759353455e+00
-1.005247948290625137e+00
-9.927929973138883701e-01
-8.968073206603928149e-01
-8.382496253430634647e-01
-8.602567840225623375e-01
-7.076953028001764512e-01
-6.480702159296634068e-01
-7.277286174064240276e-01
-5.777004428264069791e-01
-4.873102553882825427e-01
-5.533993047302385726e-01
-4.174072752439778045e-01
-4.204059526642945910e-01
-2.458964718106747549e-01
-2.824868066029966318e-01
-9.969083449516059903e-02
-2.997783290664269087e-02
1.409310174901383661e-01
1.948637320978119369e-01
2.681209162350151054e-01
4.167882514052655418e-01
4.671058367858277882e-01
6.533495489673259993e-01
7.567073734029269305e-01
7.237376417290360964e-01
7.758500290281075129e-01
8.293132759340219318e-01
8.964178119466579275e-01
8.059866996449809307e-01
8.614106688896244757e-01
8.581382538207880106e-01
9.426914183060991492e-01
9.548237883257154612e-01
9.733982807533624326e-01
9.642639360772935486e-01
1.072250983332581065e+00
1.102233554398112325e+00
1.201449670590359231e+00
1.194479536337986314e+00
1.279513105246709470e+00
1.285336998713138223e+00
1.281548264363372214e+00
1.345078789680015596e+00
1.309783695018673866e+00
1.225903425888244191e+00
1.209423854269771503e+00
1.156322391106439751e+00
1.081260502636119281e+00
1.095304960077406742e+00
9.678622158549555765e-01
8.932143013559948885e-01
8.300243319969112799e-01
7.554887318463828771e-01
7.523532507324096619e-01
6.497987499637506437e-01
6.232555237232220158e-01
5.401167239600535019e-01
5.329457295474818723e-01
4.946644789595636693e-01
4.348965450497467300e-01
4.416505481691907486e-01
2.973363463421372366e-01
2.346291185561046044e-01
1.907395625163043618e-01
3.167511837356103838e-02
-3.983088644671560485e-02
-9.744206156623302917e-02
-1.899796253351620778e-01
-3.289630200479741196e-01
-4.165455326923782620e-01
-6.145273642427122596e-01
-5.988023912268289894e-01
-7.255739713959391546e-01
-8.063308328398356428e-01
-8.559672953306799448e-01
-8.613717089727355170e-01
-1.009223226797811623e+00
-1.002363100979255739e+00
-9.797531160461505628e-01
-1.000638328839063673e+00
-1.094264456071605940e+00
-1.086279641250475825e+00
-1.069071714602800371e+00
-1.160826613477038860e+00
-1.129147455552445889e+00
-1.281554404718301399e+00
-1.283882773631454421e+00
-1.287864527610135923e+00
-1.410436553447933283e+00
-1.455296572955590895e+00
-1.441498079237064855e+00
-1.438930938195540410e+00
-1.424686191063434748e+00
-1.505976262828800261e+00
-1.388808555027275071e+00
-1.395653091758052300e+00
-1.292917604945093668e+00
-1.225824457135797019e+00
-1.131648972309992951e+00
-1.109846205143735443e+00
-1.039396624074555797e+00
-8.874661247386870233e-01
-9.070784601480047504e-01
-9.356751713153145245e-01
-7.428856407302231180e-01
-7.352457543828802011e-01
-6.370686174587980588e-01
-5.889996929518629409e-01
-6.005016618137407614e-01
-5.892937475375548129e-01
-5.137009209727899650e-01
-4.727590374592257061e-01
-4.697074812015012424e-01
-2.810421161511816868e-01
-1.958669768251348753e-01
2.598976509737968565e-02
-2.720911193401912356e-02
1.132767900166160580e-01
1.710779696570746689e-01
2.915271540223605129e-01
4.058514949935332905e-01
4.368823183126529508e-01
5.930142780447440476e-01
6.364652626870208607e-01
7.394281145268701838e-01
6.892456125919325105e-01
7.838420314415385226e-01
7.705652228631768574e-01
8.513144417850389001e-01
7.974950195438830214e-01
9.265199441828844140e-01
9.416523059471161305e-01
8.296803830297497795e-01
1.011487335967024892e+00
1.031011417894819981e+00
1.024108926016088716e+00
1.104833254713518231e+00
1.168527452160824431e+00
1.143603593000489305e+00
1.226576227248697526e+00
1.295590425995152062e+00
1.243489080479813769e+00
1.270333323608138665e+00
1.247379251706725256e+00
1.276119910277845326e+00
1.146202937240278441e+00
1.183949347660494755e+00
1.044681514700599223e+00
1.018689908060403271e+00
9.058461315328463215e-01
8.560907079485301496e-01
7.354254944144847927e-01
7.820567785479648482e-01
6.712881361362760257e-01
6.958357225652119782e-01
5.674435371961167318e-01
5.551059117540915189e-01
4.734038093128868363e-01
4.339443694064919477e-01
4.820872373150875134e-01
3.441942799396539576e-01
3.157205947440802074e-01
1.947271820557672228e-01
1.093032690050693978e-01
4.197195962443824035e-02
-6.529433573445396488e-02
-1.380933256073220428e-01
-2.066784774535534719e-01
-4.140334533906604442e-01
-3.868391776871766830e-01
-6.152283111505461033e-01
-6.676822105474397029e-01
-6.729750176763170666e-01
-7.990405205136121847e-01
-8.068415430037170211e-01
-8.416272503780923842e-01
-9.436070862497328848e-01
-9.581312473865494228e-01
-9.302144676728407724e-01
-1.048249567579893293e+00
-1.083935015744174057e+00
-1.047962865521067322e+00
-1.114905443066498858e+00
-1.161346773792074183e+00
-1.200829699812534068e+00
-1.217948418726832127e+00
-1.174909259504276715e+00
-1.354384974555837395e+00
-1.364216604414053569e+00
-1.340031542862160974e+00
-1.444697658621966641e+00
-1.446624614866285796e+00
-1.494728276427257141e+00
-1.452763676285782068e+00
-1.403901262473734812e+00
-1.341805033418905557e+00
-1.332997371243345608e+00
-1.220333063428986842e+00
-1.150130177348875460e+00
-1.126057390883583809e+00
-1.107409371880504922e+00
-9.462410504265607036e-01
-9.965592171968622459e-01
-8.011335206747138837e-01
-8.111457511888319205e-01
-7.391863192681434880e-01
-6.650697320987319916e-01
-7.160132134606386201e-01
-5.756208556349509120e-01
-4.615539078967518805e-01
-5.257566118048998538e-01
-4.515184134495918711e-01
-3.098351062843898163e-01
-3.833728992383313994e-01
-2.760821190848747331e-01
-7.791790719472438398e-02
-1.424960206970274021e-02
9.335030880982653212e-02
2.024018121011614268e-01
4.088185807985274534e-01
4.090756251659007914e-01
4.965881573115367709e-01
5.240773038124361127e-01
6.048057714999346413e-01
6.825099227093901488e-01
8.307776246226593608e-01
7.831653873404380573e-01
8.031282625572048195e-01
8.355818464356142838e-01
9.322525009124643658e-01
8.224959686186058549e-01
9.806390828919946401e-01
9.740924654131679628e-01
9.263608881678568885e-01
1.033725419159160497e+00
1.005207944761995931e+00
1.118395646726201731e+00
1.089814179214742662e+00
1.171014813138519628e+00
1.309664736078165026e+00
1.289896503313167742e+00
1.245545687460870354e+00
1.286171510515375926e+00
1.189944151081336665e+00
1.209731692976182993e+00
1.179412551957271349e+00
1.011344809209567597e+00
1.023424126302578951e+00
1.128893062973835626e+00
9.058733657842865661e-01
8.581206246169226226e-01
7.917823248513047307e-01
7.776267213022924896e-01
5.191098569563199483e-01
7.202155808514024704e-01
6.041010367810073500e-01
4.718836489737692763e-01
4.531416407435131521e-01
4.402481356385407607e-01
3.924665809802972971e-01
3.416297571030044167e-01
2.463766647392829079e-01
1.768758603234900362e-01
1.614443949221471275e-01
-4.897294542849234267e-03
-1.682058159581110296e-02
-1.462940489985732617e-01
-2.899805131489406884e-01
-3.096128798438647078e-01
-3.873362122631313076e-01
-5.323612615717127072e-01
-5.718483645377814284e-01
-6.274954741192946273e-01
-9.068672106356331364e-01
-9.942849739028309930e-01
-9.664919113812856510e-01
-9.022710837005105677e-01
-1.074830752693073599e+00
-9.881189900493004830e-01
-1.039848432969887826e+00
-1.120369563464836737e+00
-9.607132492010669322e-01
-1.072854775462010357e+00
-1.108190076919355116e+00
-1.181675603588198120e+00
-1.201416607405795700e+00
-1.256253557680938382e+00
-1.352022785832108775e+00
-1.359324437534459085e+00
-1.342530140675513239e+00
-1.450430165076927347e+00
-1.494414260916953507e+00
-1.407420170094729528e+00
-1.378955006427374119e+00
-1.492720645753987885e+00
-1.255177677175348006e+00
-1.320813520522882367e+00
-1.228276285494954712e+00
-1.194728485855143463e+00
-1.127506992121125595e+00
-1.083518507185171176e+00
-9.485490516962279406e-01
-9.203467439691300767e-01
-9.526534346712151047e-01
-7.898130973469008609e-01
-7.419561767159144061e-01
-6.917977295161414908e-01
-7.892640967507196237e-01
-6.074579808634685829e-01
-5.174066713743762369e-01
-5.619102298098259674e-01
-4.775109460472467537e-01
-3.438232634434124635e-01
-3.583589765731058363e-01
-2.658979236668280177e-01
-7.887255810620186214e-02
-1.506540662244464437e-02
1.015680837539773840e-01
2.391074934590000922e-01
3.305967254346729445e-01
4.390791397686715780e-01
4.702027121352861383e-01
6.618965276701164191e-01
6.237939056383808856e-01
7.262553244783328532e-01
6.904358771453129595e-01
7.629702671138994807e-01
7.500727964461866293e-01
8.608110736379955830e-01
8.275698641497050145e-01
8.592295346155358615e-01
9.079415650056879006e-01
9.466892000906198534e-01
9.819414993842298101e-01
9.213484241949504439e-01
1.096532578414679548e+00
1.081397825311553262e+00
1.099845052675001655e+00
1.227731144436339239e+00
1.238843502203744062e+00
1.221628895988048358e+00
1.263411614710872710e+00
1.172232189671559732e+00
1.223057584349671378e+00
1.181137859130537260e+00
1.170256366420778571e+00
1.129667795549160525e+00
9.903732071019879513e-01
9.584108399428760139e-01
8.736177016065387324e-01
9.489355610924752327e-01
7.488527976803738273e-01
7.447042045295063639e-01
6.769623970579210503e-01
5.144664678618680043e-01
5.613309340985236373e-01
5.675876429752844121e-01
3.958369307855806318e-01
4.727827422367671395e-01
4.807027674481782475e-01
3.592617164122728912e-01
3.269656463096488608e-01
2.960394912957087232e-01
1.987502334579959173e-01
2.843524299215852494e-02
-5.300100860766358141e-02
-1.584068189474628074e-01
-1.299995265625780716e-01
-4.669099494812919415e-01
-4.705033845341284326e-01
-5.986265693457053505e-01
-6.050236208101231750e-01
-7.413068755827153522e-01
-8.103169713949063269e-01
-8.246253997180832407e-01
-9.384346898759009514e-01
-9.127295416729980237e-01
-9.946207573978989025e-01
-9.965809710644765174e-01
-1.069905704182082085e+00
-1.054367655225004308e+00
-1.157963799118532089e+00
-1.050323727369857352e+00
-1.254623141211915760e+00
-1.159768860410602009e+00
-1.241343338925900319e+00
-1.289105362654204834e+00
-1.368152657732707000e+00
-1.364149685259007150e+00
-1.463042874187148179e+00
-1.499006111748053760e+00
-1.467060896932118386e+00
-1.456252516676818543e+00
-1.367855940530491754e+00
-1.389548675829368696e+00
-1.390580231989420712e+00
-1.379021899277573349e+00
-1.231828653342372348e+00
-1.258650998902811402e+00
-1.155645773695480383e+00
-1.145231489033375016e+00
-1.073811580358504658e+00
-9.825209208473099087e-01
-8.376054060333606444e-01
-7.599908731457016842e-01
-7.277385533219290492e-01
-7.714094691579650442e-01
-6.334228694236451185e-01
-6.593841882079599648e-01
-6.301075514384367748e-01
-5.298310444434050082e-01
-4.036971646159219773e-01
-3.761512516347921831e-01
-2.716893699553376007e-01
-2.511299325887101919e-01
-1.451156211663639783e-01
-8.591868641114555616e-02
2.053002482272848761e-01
1.912545635054674065e-01
1.986289328659973652e-01
4.244586369995287933e-01
4.026257793530914064e-01
5.839715780640429843e-01
6.389558081825706948e-01
7.827391976742810176e-01
7.496745603473005115e-01
7.787298369602365655e-01
7.940624281162539377e-01
7.824908440821151112e-01
7.993052099933259935e-01
9.188816346840638083e-01
8.761384633782829390e-01
8.629458186553624621e-01
9.910957677513595465e-01
9.991907012030972757e-01
1.124656606215575616e+00
1.136727984912159206e+00
1.171552346147774815e+00
1.106134031207813839e+00
1.195530640000326050e+00
1.178386913402657221e+00
1.308225847255856333e+00
1.236217086182301861e+00
1.256532542080103232e+00
1.249595832344628343e+00
1.192111690632472021e+00
1.158266730569884384e+00
1.081553200559271843e+00
1.020907330105884636e+00
9.955898155176764464e-01
8.607788256007223859e-01
7.368551858480513195e-01
7.048983698811489562e-01
7.121056145198483289e-01
6.061071290786681498e-01
5.669557285533680657e-01
5.314389846740692480e-01
4.660511009232883861e-01
5.344294626975862883e-01
3.628212398378289349e-01
3.634821913943918070e-01
2.141930796993002373e-01
2.373196136706212933e-01
1.525392537021870720e-01
-4.717212921546143356e-04
-4.398169741206318928e-02
-8.780945796998114450e-02
-2.808850587214428152e-01
-4.263939192709731985e-01
-4.699399903652396460e-01
-5.640787495311280209e-01
-7.167025430393670904e-01
-8.129456736952400675e-01
-8.203274682028105502e-01
-8.456829527571116945e-01
-9.300688952818001454e-01
-9.081534702495100975e-01
-9.659109684835222032e-01
-1.072282165443832369e+00
-1.094359075032010242e+00
-1.018800625493043288e+00
-1.133478283930213548e+00
-1.135038466164890236e+00
-1.127610344009482235e+00
-1.272264915931272888e+00
-1.250958633941882781e+00
-1.295099894043979516e+00
-1.347208166272465091e+00
-1.322480813012108847e+00
-1.462829938589023548e+00
-1.564612979377478785e+00
-1.522966397630656221e+00
-1.424785067207557043e+00
-1.442068158588611038e+00
-1.482872797211431282e+00
-1.474414405662454852e+00
-1.321614080242342837e+00
-1.299859630892494344e+00
-1.227200924243912583e+00
-1.187756058882852628e+00
-1.037320786521758853e+00
-9.630524592936358097e-01
-9.607566890892514921e-01
-8.838283244385327642e-01
-8.290987104517941741e-01
-7.083360399721861933e-01
-7.436134230314724869e-01
-6.838843576274118430e-01
-6.303403768282721531e-01
-6.095192064453230918e-01
-4.678510104503283418e-01
-4.227992603949135009e-01
-3.943340722476415539e-01
-2.652849621761459442e-01
-3.107290870466092314e-01
-1.157746433355025806e-01
5.225631403169102990e-02
1.499570300438844012e-02
1.328067018276735400e-01
3.289840454516109181e-01
3.871936682743217784e-01
3.561422283648623122e-01
5.684778153607369378e-01
6.601339868265666544e-01
6.954956704687361713e-01
7.585887991147127751e-01
7.562536866660440893e-01
8.542405827864893997e-01
8.022770481817159682e-01
8.866854590037873685e-01
9.434993410885268439e-01
9.691690541154948102e-01
9.130776218544011114e-01
1.025706903874238796e+00
1.040289586489785867e+00
1.034195910181296085e+00
1.144843085227075674e+00
1.120625183979121031e+00
1.194011949830512620e+00
1.244176763161792376e+00
1.315989669813322216e+00
1.239216499757833656e+00
1.211112988776513077e+00
1.214970883678972324e+00
1.200868579667859315e+00
1.196852423958228995e+00
1.155498533317423693e+00
9.924948669933959522e-01
1.006915897453486419e+00
1.001192393763272515e+00
7.480308271448184998e-01
6.997855079710051385e-01
7.459749835944563534e-01
6.146873927466117715e-01
6.561976422879640669e-01
5.440067849514057530e-01
5.343629586524965003e-01
4.458426663519198807e-01
5.395812590610665760e-01
3.512660614779548607e-01
3.510384112385275812e-01
2.119390828432080043e-01
1.924718074981557892e-01
2.233762704776041941e-02
7.675057582450633964e-02
-6.376552196893056634e-02
-1.904282021385532986e-01
-2.145065821546012774e-01
-3.744465490276837616e-01
-5.313597069352382629e-01
-6.213368400291571225e-01
-7.596791690081704518e-01
-7.794604395476407710e-01
-9.439735650838548819e-01
-8.551734784129669809e-01
-9.539289715564107652e-01
-1.038869734820120128e+00
-8.918464959442740092e-01
-1.036478572466889236e+00
-1.098031230561333338e+00
-1.055672452141857676e+00
-1.081444309383208457e+00
-1.096992258426165767e+00
-1.226149718796031296e+00
-1.110241695929929051e+00
-1.278284817230326498e+00
-1.282589582827115660e+00
-1.302147688615781895e+00
-1.340525162861072594e+00
-1.369472220965970877e+00
-1.384116854259940244e+00
-1.370087391474618332e+00
-1.468770184157198511e+00
-1.430423011209683626e+00
-1.465576825510216397e+00
-1.333331323247353373e+00
-1.261168860631001643e+00
-1.240227349593616690e+00
-1.145884830749250849e+00
-1.044967930906949727e+00
-1.068025486448676453e+00
-1.026827819361452843e+00
-9.788829416618514134e-01
-8.769879056553395724e-01
-8.139668410090334927e-01
-7.226457920764408627e-01
-6.849996735065309039e-01
-6.938991448492356495e-01
-6.738711887417387914e-01
-5.718432122022151232e-01
-6.088608390362285627e-01
-5.147108564375060258e-01
-3.917695384282876003e-01
-2.903204825487827323e-01
-3.178657406469885816e-01
-1.478235404645534545e-01
-6.924741683586865815e-02
2.643450812054795596e-02
1.531520111887126612e-01
2.132838097145856038e-01
3.759946354835655979e-01
5.389474334772522690e-01
5.365392780493826175e-01
6.456020842879618415e-01
7.303394090886725643e-01
6.890934429519031124e-01
8.340882794750077434e-01
8.627044013726190563e-01
8.301349292865716212e-01
8.006348700474396063e-01
8.482418591685988440e-01
1.049301477339667166e+00
9.593582392814574700e-01
1.017830010446868050e+00
1.031753626475506724e+00
1.062716573629880035e+00
1.081018876598306422e+00
1.129837171223258441e+00
1.279629416860162294e+00
1.230609084428271327e+00
1.215780294287974517e+00
1.298095044879029158e+00
1.286033013110201795e+00
1.399169242716407968e+00
1.224905673559112396e+00
1.206622580389133059e+00
1.221321693505822648e+00
1.095428236360559637e+00
1.034630781311922432e+00
9.309474707619468381e-01
8.608901022457380314e-01
8.873884747266340689e-01
7.232773626386668209e-01
7.352365700326918274e-01
5.622505244276148062e-01
6.085906295304721603e-01
5.297990201137932065e-01
4.853601107962027816e-01
4.012515654366416995e-01
3.722423517159548778e-01
2.892466073483469513e-01
2.594148617757152664e-01
1.178342407332310660e-01
1.378755052200870967e-01
-4.781535090363984997e-02
-5.897042192750359679e-02
-1.917097543689296746e-01
-3.297651552295328692e-01
-3.758696107041181733e-01
-4.800151763126177529e-01
-6.499772887406172206e-01
-6.628822501600351025e-01
-7.341756328337097903e-01
-8.742527628515401883e-01
-8.871709377787787565e-01
-1.059192665654779431e+00
-9.970117777621101407e-01
-9.581428149215303058e-01
-1.003690781720898650e+00
-1.024698386354524704e+00
-1.100858545409428624e+00
-1.183911558201223180e+00
-1.159172431074088960e+00
-1.128239443209372972e+00
-1.183826547309934307e+00
-1.177596862458423432e+00
-1.342477857453728607e+00
-1.437759678302007682e+00
-1.422235066896117672e+00
-1.394914694087751705e+00
-1.390558710703238443e+00
-1.454258584653402187e+00
-1.427686320507947304e+00
-1.391807168752919655e+00
-1.425940948898925864e+00
-1.360319732082358568e+00
-1.298908133458327008e+00
-1.261582448034971549e+00
-1.124095164601820684e+00
-1.096289905437135559e+00
-9.868963754196581339e-01
-1.039693415960621925e+00
-9.263750954022729189e-01
-8.010569625307226715e-01
-8.435500631757607559e-01
-8.078016808195702669e-01
-7.564667789604077042e-01
-7.100503240390299009e-01
-6.101857884154471279e-01
-5.583515001004701883e-01
-5.219124822198366598e-01
-4.565059105196400679e-01
-4.478717218245903409e-01
-3.348932901141254970e-01
-3.250217668632260359e-01
-1.244890104632009054e-01
5.971346854078588701e-02
2.629978974654713364e-02
1.190473425187047324e-01
2.781092836093779774e-01
3.535041852917985561e-01
4.811792794640010196e-01
4.899522146537967360e-01
5.815144009026673722e-01
6.304646392042719816e-01
7.357798141398568248e-01
7.149505791629080509e-01
8.289615064045940951e-01
8.764036727342973121e-01
8.769201434363458336e-01
9.175352876903453136e-01
8.686030495442014221e-01
8.635731624809079854e-01
8.763123646402017908e-01
9.459424825409337156e-01
1.064190857624420339e+00
1.192016362707146948e+00
1.165277320265854177e+00
1.183990759704754536e+00
1.241701373353900628e+00
1.281549371139092841e+00
1.305173665484504086e+00
1.298548417003767996e+00
1.103638238745554334e+00
1.238737492590600286e+00
1.171073869960614910e+00
1.096068737093889300e+00
1.084054786000637982e+00
9.313642088056117707e-01
8.305058611956328551e-01
8.845905446716332277e-01
7.827811604854278960e-01
7.529916444154167721e-01
6.609609067127184545e-01
5.770485790892385669e-01
5.847713426790666080e-01
5.339499237173080948e-01
4.229379394120679203e-01
4.070594662208852910e-01
4.005281160995885492e-01
3.318052682811110654e-01
2.545479008211547489e-01
2.282460226618557853e-01
1.184746300991414286e-01
1.496973053418379843e-02
-8.441565888011119678e-02
-2.233965273818795949e-01
-2.274406059542187497e-01
-2.921043269867878989e-01
-4.433676991189355876e-01
-5.859928224650707840e-01
-5.937581628886017260e-01
-8.611351106237526976e-01
-7.945311590890289377e-01
-8.699736022638885347e-01
-9.807295774597282190e-01
-1.006845452997844337e+00
-9.883935843497746454e-01
-1.004856935569006904e+00
-9.582159271968541114e-01
-1.078121248674667854e+00
-1.099209637942258233e+00
-1.161714427215185363e+00
-1.139644629265699205e+00
-1.180422451476460743e+00
-1.216430280441487266e+00
-1.228199895127820351e+00
-1.259784483152776469e+00
-1.431069170550513192e+00
-1.467444953669764018e+00
-1.421132215794437714e+00
-1.407535537684405869e+00
-1.470456092235722378e+00
-1.445054897334395516e+00
-1.450017055793397347e+00
-1.382239042049379307e+00
-1.281349791299696728e+00
-1.263513387550591727e+00
-1.166173686579559998e+00
-1.118196564385358638e+00
-1.052108186763462738e+00
-9.847000713848603759e-01
-9.076591640289796148e-01
-8.793521610401088262e-01
-8.280444584552590914e-01
-7.282354213252004715e-01
-7.372748779068749592e-01
-7.754935771629994923e-01
-5.805925889763960956e-01
-6.206206135047497296e-01
-5.229248849196977966e-01
-4.512913932448682774e-01
-4.588915829546700298e-01
-3.526145302932603975e-01
-1.994766587081349130e-01
-8.261536979087319432e-02
-5.155186233738440205e-02
7.695317870853086994e-02
1.165728680467313233e-01
3.191277637471022777e-01
4.697571647928388550e-01
5.139558853943563266e-01
5.613500635345731737e-01
6.288510616501736816e-01
7.314300343942038429e-01
6.853041851793214567e-01
8.452762178914322577e-01
7.998489269639806887e-01
7.852839108975016025e-01
7.962149085189965669e-01
8.756729552923998572e-01
9.396223543322291816e-01
9.889876827909426238e-01
1.026225423848564189e+00
9.060169051941626694e-01
1.120513471326847643e+00
1.118320382494535137e+00
1.137641391834529392e+00
1.186626913803020988e+00
1.215066003322614385e+00
1.321942722521304958e+00
1.240654112274444110e+00
1.231620951480337345e+00
1.230470695150915450e+00
1.168878689368531454e+00
1.170612167258040959e+00
1.155151608636745042e+00
1.083794695893626425e+00
9.857681290851705302e-01
8.557548040184360660e-01
8.138095275097602110e-01
7.803996156544229512e-01
7.783768038373319875e-01
6.259853516209031854e-01
6.177057780813759447e-01
5.107151183167132347e-01
5.263699291446162221e-01
5.006396845437075527e-01
3.678760321601856620e-01
2.977015196350163428e-01
3.204197433758013136e-01
2.655733723873980323e-01
2.747702541967708134e-01
1.436205727008140753e-01
-1.605357340196678084e-03
1.493966771274903016e-02
-1.445798504900425718e-01
-1.820563717359041378e-01
-2.894663187432529039e-01
-5.081082917723077630e-01
-6.257200021099523779e-01
-6.265022606863477339e-01
-7.159982839576772840e-01
-8.126982409986049927e-01
-9.372147351987745179e-01
-8.727426656733557886e-01
-1.024243534814458068e+00
-1.036932568577189961e+00
-1.073417782356291594e+00
-1.014124160706360023e+00
-1.078692753117610259e+00
-1.107425792094608008e+00
-1.144444967477354913e+00
-1.221040635662204332e+00
-1.265148876811919676e+00
-1.236974867751908569e+00
-1.319958182679660030e+00
-1.277270225945106974e+00
-1.353965351274246443e+00
-1.393470191658177315e+00
-1.443824814478955609e+00
-1.345346651319473175e+00
-1.467498284355836180e+00
-1.455090346017764436e+00
-1.439450982798466061e+00
-1.440155713235145019e+00
-1.265643487758812968e+00
-1.232288080258115315e+00
-1.229454901002684952e+00
-1.188908954077004587e+00
-1.008814966938563762e+00
-9.765180601248495407e-01
-8.998759927649851997e-01
-8.474466236898736682e-01
-7.336432341789349554e-01
-8.788910848241847651e-01
-6.740854726749199166e-01
-6.238513909816718606e-01
-7.420042174147974956e-01
-5.318518231144191422e-01
-4.243382190854688152e-01
-5.252340966518301846e-01
-4.266658386738002018e-01
-2.787490836103838632e-01
-2.368611104167620551e-01
-1.413149910632619799e-01
-1.149051657062177684e-01
5.878193457448542547e-02
2.208617959565062350e-01
2.657721184126577985e-01
3.928101098339893960e-01
5.110091609173715854e-01
6.391366107937677121e-01
6.793027311000880974e-01
7.154700334916265225e-01
7.675999698141281469e-01
8.240351588256513704e-01
8.603534558718696212e-01
7.187286954100760017e-01
9.006042376967822172e-01
8.626602247439740800e-01
9.267880537138556418e-01
9.552800801823632115e-01
9.662904069988484945e-01
1.017320178104753170e+00
1.029118988255155687e+00
1.049082160498800764e+00
1.103231580717889848e+00
1.209760477841352211e+00
1.283714466206264948e+00
1.291064814453273035e+00
1.232082678849936164e+00
1.262706623794888072e+00
1.265988194305307291e+00
1.138265933656589457e+00
1.247783967058931021e+00
1.150271264181616626e+00
1.048309023297379960e+00
1.019476535564821873e+00
9.897048196014680554e-01
8.885923826382389201e-01
8.227129581970437089e-01
7.242969929216669378e-01
6.970926285976614123e-01
5.366318184096531274e-01
5.311530021408954472e-01
4.671274871516405969e-01
5.301303557247376563e-01
4.108479928118669577e-01
4.372816972392870039e-01
2.822580290225835120e-01
3.074370365170434050e-01
1.816755361828001347e-01
1.677376734316790019e-01
4.956967445440295383e-02
-7.044175809976797875e-02
-1.737068526135942537e-01
-1.973931968304307172e-01
-3.562963324626378658e-01
-4.582295378714586476e-01
-4.369183482477064784e-01
-7.233029936158164031e-01
-7.740687291470210729e-01
-8.170060456210407329e-01
-8.895403480997707835e-01
-1.034762009979217412e+00
-9.959489282066782412e-01
-1.022172729305218519e+00
-1.023700666190852759e+00
-1.092351347430538189e+00
-1.141094362392267136e+00
-1.068691084103285061e+00
-1.090532075224485586e+00
-1.238383420784033628e+00
-1.147629476961854023e+00
-1.190978100880928814e+00
-1.258710416002112975e+00
-1.298753972939107548e+00
-1.283652814728033276e+00
-1.426833770925168610e+00
-1.478185930363083322e+00
-1.372309452873822666e+00
-1.353890607333335883e+00
-1.453541520369131979e+00
-1.382482378329100925e+00
-1.343868548713301081e+00
-1.234465002860643645e+00
-1.308432513944735032e+00
-1.174332880209911112e+00
-1.156188620541362289e+00
-1.023751724778354966e+00
-1.011271879889798830e+00
-8.976535074471020392e-01
-7.990906149958785232e-01
-7.753862885888475054e-01
-7.963948997358788473e-01
-7.231561436300530943e-01
-6.422264087779290254e-01
-5.717415446344565888e-01
-5.192542966077570155e-01
-5.114552916446596376e-01
-4.407934469296469482e-01
-3.568935516791964524e-01
-3.163574065217861775e-01
-2.573958971908721360e-01
-1.538022303825266335e-01
-1.479413506140115631e-01
1.156360991222608048e-01
7.520199642618993763e-02
2.854146063292232194e-01
3.832767965578683378e-01
5.774174311039499408e-01
5.220654623221273605e-01
5.779787267191442979e-01
7.591815269911411646e-01
7.489307190709179052e-01
7.558768145883237866e-01
8.420276906834882613e-01
8.255788875108234226e-01
9.090151811123812209e-01
7.727842582468242849e-01
9.383248008349535096e-01
9.700499016977474076e-01
9.715905381932479212e-01
1.092324331118164960e+00
1.100181541363287163e+00
1.012921894279414481e+00
1.100013754309503655e+00
1.204155945248769788e+00
1.167523895058448780e+00
1.230904869493254061e+00
1.294646940230785193e+00
1.174659764889781410e+00
1.216648386203474708e+00
1.260957902085252158e+00
1.201928308082240049e+00
1.164634229123337583e+00
1.132920712059365176e+00
9.713100050238053784e-01
9.504903858780562320e-01
8.789871730320715226e-01
7.711617756387999512e-01
7.155180780377387029e-01
7.051578945481360439e-01
5.872609836904658653e-01
5.824238688526345298e-01
4.408250854818619446e-01
4.740544514260245368e-01
4.876376094082894852e-01
4.229729038895080340e-01
3.118090140206848382e-01
2.726971333081911752e-01
2.856495144899256489e-01
1.134524966596418688e-01
6.048041178150220798e-03
-9.823300815239990880e-02
-1.328424509556960231e-01
-2.551252435566361831e-01
-3.795222305612104829e-01
-4.079628097848801982e-01
-5.510292229743167791e-01
-6.533198359559566626e-01
-7.219315494715439208e-01
-7.626885630699785645e-01
-9.897635120260559471e-01
-8.342060186628319496e-01
-9.426773974693472002e-01
-1.052666364863297899e+00
-9.718119266072298146e-01
-1.126125094520346037e+00
-1.032602023227296106e+00
-1.132313957732522303e+00
-1.086549033458515279e+00
-1.145816174175195989e+00
-1.173268099140145848e+00
-1.262796829654710296e+00
-1.312865773968472816e+00
-1.287685650520635772e+00
-1.276983632709568939e+00
-1.416477955964736024e+00
-1.451939696718691941e+00
-1.412278234109359598e+00
-1.516581287106977705e+00
-1.553589600990473274e+00
-1.343756625818056438e+00
-1.336538067942689034e+00
-1.305607052435055371e+00
-1.216983634881545040e+00
-1.191784525740109846e+00
-1.087100371841336788e+00
-1.035755105575252077e+00
-9.569321400200402339e-01
-8.667162719571415153e-01
-8.602031547140069900e-01
-7.662434152677097821e-01
-7.024574216458258080e-01
-7.771086868453880303e-01
-7.120794221231758758e-01
-5.687501076954284418e-01
-6.071017101950927364e-01
-5.255162284193545252e-01
-5.390573207212157048e-01
-3.814571460182259455e-01
-2.596263628004502610e-01
-2.179276518321753842e-01
-1.230785515678263775e-01
1.097269919654228487e-02
8.410837138333751573e-02
1.778450357182070896e-01
2.907505921700290208e-01
3.822963554920726925e-01
5.189689854910801703e-01
4.775248873058549615e-01
6.140141327462425025e-01
7.304491868459587200e-01
8.181177542969040317e-01
7.475515276897455319e-01
8.375221138933782727e-01
8.529179527710543107e-01
7.991213306500106750e-01
9.086046548027920666e-01
8.429860548430178069e-01
8.980747910410942225e-01
9.227816747689993049e-01
1.055944131217354753e+00
1.057272190333437445e+00
1.153511158958894889e+00
1.110741128595696292e+00
1.129388370355061122e+00
1.172439406866818246e+00
1.341934513182628574e+00
1.281560796929025470e+00
1.335463970158669023e+00
1.234410288103955589e+00
1.165325976236992966e+00
1.179258195436845513e+00
1.115839014579603328e+00
1.069270046502322158e+00
1.051105587431982125e+00
8.115891490885653869e-01
8.597828705204622057e-01
8.014482503973604510e-01
7.287139941348739214e-01
6.750096107862118000e-01
7.041635115060399519e-01
5.944374354512053094e-01
4.819838758642986387e-01
5.061111457294743543e-01
4.860255663344053012e-01
4.732600879691535312e-01
3.359860623713512018e-01
2.736713927357522502e-01
2.375051653129488238e-01
1.009796947702697179e-01
4.589919693972892289e-02
-1.873059119670218708e-02
-2.070395360192534007e-01
-2.680196217512194612e-01
-2.435528911905845140e-01
-5.556133240455384259e-01
-6.288261297223672885e-01
-7.143811785614782028e-01
-7.858787253330261624e-01
-9.223500742508581318e-01
-9.215582084670412844e-01
-1.004062645282269406e+00
-9.676307871654397097e-01
-9.277145535179732727e-01
-9.023753508921101840e-01
-1.110821621944780402e+00
-1.130983574235439715e+00
-1.144392326106580704e+00
-1.030772447256730784e+00
-1.155834415763479228e+00
-1.247580161420198008e+00
-1.123961542774808198e+00
-1.249640696170996712e+00
-1.268099467505687583e+00
-1.244709433246215413e+00
-1.412720101444297160e+00
-1.288752971256577950e+00
-1.486931542998379374e+00
-1.389494043676960056e+00
-1.392004086345068226e+00
-1.350278276672613798e+00
-1.270151059171559238e+00
-1.339389268170791514e+00
-1.298340603231828316e+00
-1.183328209286706345e+00
-9.453927180718570966e-01
-1.086407639605141640e+00
-9.727382507765116593e-01
-8.111223618027001425e-01
-8.308680577476506013e-01
-8.097277022844364680e-01
-7.876613454305170237e-01
-7.371965746420676702e-01
-6.278979202011518712e-01
-5.740970681000094888e-01
-5.690393951241026205e-01
-5.440432014540400596e-01
-5.487459881651700622e-01
-3.503726094165208749e-01
-4.217595531073339288e-01
-2.573831029366162038e-01
-6.685441761727442533e-02
-3.252740872209659850e-02
1.577929722066942764e-01
2.042101275259750326e-01
2.606881676954564964e-01
4.564015317604244171e-01
5.442046919524589077e-01
6.133400105563748816e-01
7.083011653322733858e-01
7.495277560895617919e-01
7.848145405533782926e-01
7.817605474361357665e-01
8.763469769790255270e-01
8.910597266525955851e-01
9.228848283767746574e-01
8.737911420392941997e-01
8.862783375504925676e-01
9.077287194957947003e-01
9.968847184617869450e-01
1.101540809886015326e+00
1.192683177010707807e+00
1.107683207175180318e+00
1.237283893623764230e+00
1.192300558387125564e+00
1.197623129393609487e+00
1.264140038615350958e+00
1.325203537659852326e+00
1.268116182280192517e+00
1.302771024920070353e+00
1.222179900670848918e+00
1.216011402935119223e+00
1.223994699955650356e+00
1.058979931916741668e+00
9.732034794692577817e-01
9.451791202513055712e-01
8.726584359993979634e-01
8.437813240503709844e-01
6.643723246715648179e-01
6.150098454135639603e-01
5.551157483984190399e-01
5.629071485286145649e-01
5.212216863984137083e-01
5.513734437333358551e-01
3.956151674899480719e-01
3.911762774008240018e-01
2.809529983610642989e-01
3.685422743671441514e-01
2.360240566610414814e-01
9.924452764178265385e-02
7.523944687132862186e-02
-4.958729522540156892e-02
-2.189749602125369843e-01
-2.125181210205753513e-01
-3.086024690468392451e-01
-4.681480261520605257e-01
-5.714719438583827360e-01
-6.141479812621222223e-01
-7.031572675968709163e-01
-8.522926683768171641e-01
-8.175162511461524506e-01
-9.210570203821909496e-01
-9.150239997940565750e-01
-9.402932508528429878e-01
-1.040323125973618756e+00
-9.870941626760016963e-01
-1.029261121121501699e+00
-1.083963060387212129e+00
-1.113936692372100135e+00
-1.128395384545773483e+00
-1.162635743506569952e+00
-1.285595335487171642e+00
-1.242934918193622007e+00
-1.364323402040492628e+00
-1.359083588819457677e+00
-1.357006401319758471e+00
-1.443258626882956364e+00
-1.347309185198417358e+00
-1.337687817172458438e+00
-1.385411230733859078e+00
-1.495891246121318741e+00
-1.382308271940714484e+00
-1.353336761344180683e+00
-1.249592733843240877e+00
-1.176865590894768276e+00
-1.147863232093288666e+00
-1.044697869695941028e+00
-9.178400306114673501e-01
-8.762547359501190458e-01
-8.278302303561795306e-01
-8.432105432492428276e-01
-7.790990964366509841e-01
-7.287278471717273387e-01
-6.183854785261940767e-01
-5.579856962595741710e-01
-5.467087376841957003e-01
-5.339209397046403849e-01
-4.118140246409536243e-01
-4.205102876772806031e-01
-3.553783712245430770e-01
-1.807907788065993004e-01
-1.182196734863638909e-01
3.484173545246586207e-02
1.090026829043138912e-01
2.488472760668019590e-01
2.696078287674715246e-01
3.978425541291578660e-01
5.790402133849944510e-01
4.740969965765367000e-01
6.205263326874458363e-01
6.916049314231086376e-01
7.014529273520565544e-01
8.066809309508257142e-01
7.389589811840947542e-01
9.333259663344003476e-01
8.339183672549459470e-01
9.776452502938870470e-01
9.331485815967371922e-01
1.019222665298778363e+00
9.512690370210674651e-01
9.970905174521740300e-01
1.031295542829062217e+00
1.106434021834922898e+00
1.151693526977913384e+00
1.185726987760821638e+00
1.326259518740070087e+00
1.304180171370324048e+00
1.278087351971285424e+00
1.367504326800976333e+00
1.254940606315130047e+00
1.297874003981584590e+00
1.201118085158387139e+00
1.158502760976144019e+00
1.087422287515693142e+00
1.027112612644992540e+00
1.001986281533963963e+00
9.520991333504849052e-01
7.204362237846559935e-01
8.230341588052825230e-01
7.479933940447939245e-01
6.262003468328499745e-01
5.583846789154501833e-01
5.486942249795939697e-01
5.538680291309340253e-01
4.012673368478947844e-01
4.792705223640901790e-01
3.149599370076640037e-01
3.834076367101528215e-01
1.939566030092542137e-01
1.946678535366188623e-01
1.299974183830054919e-02
1.078984711664683627e-01
-1.082182676969273005e-01
-2.312926855003954174e-01
-4.151183008434274901e-01
-5.305032867750486547e-01
-5.520781524137273744e-01
-6.478317161145759062e-01
-6.904781171413162388e-01
-8.150802658301656844e-01
-8.636739497863510362e-01
-9.078782628337790372e-01
-9.019992653173000141e-01
-1.004001681754023378e+00
-1.088441416218062230e+00
-1.004772532690317632e+00
-1.078720285417569702e+00
-1.052951735268453648e+00
-1.145556362319598120e+00
-1.059649219112060115e+00
-1.086433543338130692e+00
-1.235713787506542261e+00
-1.209769437842819206e+00
-1.361878692703107241e+00
-1.396475591882164524e+00
-1.318051831777853788e+00
-1.385078312642838316e+00
-1.390112470472800288e+00
-1.433276276844283270e+00
-1.373994558744767724e+00
-1.389087527345225670e+00
-1.362009309787151290e+00
-1.243749785035803246e+00
-1.158383793975685361e+00
-1.246880485055005705e+00
-1.013039326417741526e+00
-1.041549861823432677e+00
-9.255249641360460133e-01
-8.695484438234765134e-01
-7.840103393907642548e-01
-8.054355647387554384e-01
-6.378164174608971226e-01
-5.806508811435654449e-01
-6.391214754071925519e-01
-5.610078298985597955e-01
-5.353992644729101968e-01
-5.276975478294475552e-01
-5.219202570921277484e-01
-3.202556662539547405e-01
-3.601372816685303180e-01
-1.663259810563351704e-01
-5.453853718613435597e-02
1.218001413269668293e-02
5.360695966732026418e-02
2.522501439209769436e-01
3.573243404354037311e-01
4.203996413112612851e-01
5.418091425613368317e-01
6.249775169735717339e-01
6.748531447349765955e-01
7.447770777560795974e-01
7.240052550526357988e-01
8.260342516616586694e-01
7.933750559786585388e-01
8.546761442333302705e-01
9.204746280543353310e-01
1.010610797771630542e+00
8.901393118316694997e-01
9.361607686419974872e-01
1.016735707393054744e+00
1.104652101751895321e+00
1.074536024498351949e+00
1.102279519008387387e+00
1.233497892228143433e+00
1.238174747471714410e+00
1.236644510111174267e+00
1.236034627052995161e+00
1.280219758406566877e+00
1.277781155799058599e+00
1.266617435888702126e+00
1.273400787415758906e+00
1.250715982746630539e+00
1.151166137996869621e+00
1.202945905208880228e+00
1.105324976847097185e+00
8.527787414481183825e-01
8.954751608207411895e-01
8.805079048378325890e-01
7.414267732179005144e-01
7.203121811199244551e-01
6.170801201855965479e-01
5.493567874617933944e-01
6.197626889968816943e-01
5.276948475444644959e-01
4.483786024794833014e-01
4.550954407817919267e-01
3.754439996042356897e-01
3.078606013454792678e-01
1.207667183901423857e-01
1.329616051392533693e-01
1.170870282492041808e-01
-3.047063422260275906e-02
-1.088811025658464327e-01
-2.150352401837923588e-01
-3.591481786708832780e-01
-4.482810375596791852e-01
-5.123662914647622024e-01
-6.567125318084092722e-01
-6.380483179396603255e-01
-7.708977531184620924e-01
-8.892921560918400914e-01
-8.963878126990972861e-01
-9.214773904656903269e-01
-1.030239510515347012e+00
-9.949247480615930339e-01
-9.240626922526538056e-01
-1.044750409376001166e+00
-1.108172163187709724e+00
-1.118880872138030558e+00
-1.071342359631679564e+00
-1.150113940090950582e+00
-1.232026152123253615e+00
-1.185567914328873318e+00
-1.283881793895869761e+00
-1.392431254973020227e+00
-1.370386615498798477e+00
-1.433829740870104397e+00
-1.435772761934946740e+00
-1.421733403874110957e+00
-1.363428697970470838e+00
-1.400659317605388532e+00
-1.318618893197610165e+00
-1.239042640616963675e+00
-1.190756283914705671e+00
-1.097660466564385207e+00
-1.076096394986584270e+00
-1.045934108772352822e+00
-8.206940797753558003e-01
-7.872576341348935802e-01
-8.082463029147985978e-01
-7.036640824101485503e-01
-7.206476154100265319e-01
-6.041125714957412685e-01
-5.412675379651860075e-01
-5.420630412884844818e-01
-5.136105612619075167e-01
-4.828735883356901626e-01
-4.028030245498595563e-01
-3.771725828705181360e-01
-2.255147989127695152e-01
-2.372594034911199024e-01
-6.633625326523417964e-02
-1.526897634428370926e-02
1.104480984973501556e-01
1.728214141274278526e-01
4.297849950866190483e-01
4.495849544988791413e-01
5.112345741572342783e-01
5.109792423395327354e-01
6.631680358119145247e-01
7.008600056796181477e-01
8.816782326310490525e-01
8.383342104092686986e-01
8.495209110485972825e-01
8.506039430635075060e-01
8.955472592737960813e-01
9.387527066166397871e-01
8.974158444744294583e-01
9.665076811773680721e-01
1.029013848245856400e+00
9.911456323061980100e-01
1.015729069671537532e+00
1.129726460615830819e+00
1.098707315096343118e+00
1.197339646499499421e+00
1.235862060409636420e+00
1.139833459334165466e+00
1.283154881966323657e+00
1.313172023908449226e+00
1.265346813235715961e+00
1.247143547668957630e+00
1.229191541859788073e+00
1.163560909947331634e+00
1.126999495716751065e+00
9.558877090069258786e-01
9.156078462864873924e-01
9.119329418005809318e-01
9.341535770703977004e-01
7.487645431806755347e-01
7.123351054228609369e-01
5.865222180949793973e-01
6.124812397861479907e-01
5.753046938303624236e-01
5.201676480831548544e-01
4.406658119344567526e-01
4.287451409398767010e-01
4.272537979585382950e-01
3.451923186565044044e-01
2.785254403820532909e-01
1.141695902866672330e-01
2.052921352714739689e-01
-2.878931623750220770e-02
-6.596044062490014070e-02
-1.866559022281714664e-01
-3.579571205620912244e-01
-5.108938235741660172e-01
-5.197450770078235749e-01
-6.000101630546963438e-01
-7.378199312876642102e-01
-7.567754921051366157e-01
-7.212879957696050059e-01
-8.896442579303459608e-01
-8.702475277548924470e-01
-9.071332890032790530e-01
-1.025669768688966421e+00
-9.464807181063451536e-01
-1.018999860540341640e+00
-1.069244517946153161e+00
-1.066491113892812592e+00
-1.035004393612404039e+00
-1.201197597875287570e+00
-1.143776929423070188e+00
-1.206274234205670481e+00
-1.261104202224166970e+00
-1.311697334402218029e+00
-1.399873427405776471e+00
-1.482766030615464858e+00
-1.385984110401526914e+00
-1.485687145991253733e+00
-1.343083553065231195e+00
-1.407868124270226007e+00
-1.364069205855145794e+00
-1.235208272815151664e+00
-1.167394838243444921e+00
-1.042737561901911247e+00
-1.036333255541522780e+00
-9.043009916678427240e-01
-9.562636164707372100e-01
-9.033341282760825042e-01
-7.127584606884399543e-01
-6.778710277321682298e-01
-6.765444735969736723e-01
-5.864457168574704893e-01
-6.417958675744919184e-01
-5.551758255692642585e-01
-5.253152531250940838e-01
-4.707472167013247999e-01
-4.093966011824876072e-01
-3.807388845643085440e-01
-2.233790774758470099e-01
-1.685587213825039676e-01
-1.134240325849266429e-01
5.592314965625903161e-02
2.131886618514141352e-01
2.542449734202696932e-01
3.398480544937229619e-01
5.156282044989891622e-01
5.378235785578702188e-01
6.820339839195602716e-01
7.278777792989199469e-01
