2.078708442122066957e-01
3.319278650838735079e-01
4.609697758323431094e-01
5.284379681029591769e-01
6.845031354830325432e-01
6.912939060017078141e-01
8.085914588908832412e-01
7.859016248217557399e-01
8.802152780108558616e-01
9.305811967096689896e-01
1.027019911733372037e+00
9.353939775247482880e-01
9.567040837557629906e-01
9.882203966878850832e-01
1.066975274932301376e+00
1.078666448195723104e+00
9.983399160499298874e-01
1.157049818758226101e+00
1.174204742787857469e+00
1.216746346785406940e+00
1.310418132397693336e+00
1.219339645795784577e+00
1.389815164724793162e+00
1.391541271636061783e+00
1.385056465121034863e+00
1.336115080239921538e+00
1.347091366585097649e+00
1.286302063076425695e+00
1.184203075779115766e+00
1.145429300299249720e+00
1.057341318886571013e+00
1.017486988531513648e+00
9.749465598991526871e-01
9.550837435426319244e-01
7.778213955252406553e-01
7.474525966798652998e-01
6.991122541197546392e-01
7.149544002172164570e-01
6.163597881391850164e-01
6.564810920418607809e-01
5.514037470079641290e-01
4.560221441819402033e-01
4.019105273310615289e-01
3.972207784927848095e-01
4.349818309066716959e-01
2.726285599761819611e-01
2.454379032080147571e-01
2.928643773783308479e-02
6.000819164053797922e-02
-8.787674136272352610e-02
-2.359070517349025897e-01
-3.879368228743120817e-01
-4.051843716058912692e-01
-6.115931515041973521e-01
-6.607600785062092141e-01
-6.914544275704345155e-01
-8.069674195588598664e-01
-7.845669551279604859e-01
-8.199218398327612345e-01
-9.781520761203716940e-01
-9.893399218874288081e-01
-9.497368029281695323e-01
-9.522881364689623762e-01
-9.895268900791795996e-01
-1.000069868811407581e+00
-1.015000544881679012e+00
-1.135308073009512864e+00
-1.076314463987861014e+00
-1.154324340372161917e+00
-1.211404693453654424e+00
-1.172169988623477543e+00
-1.394048945463721045e+00
-1.250722648020970773e+00
-1.396593744551578586e+00
-1.402192982956880662e+00
-1.344563565003397132e+00
-1.380711500847855877e+00
-1.215873243580711804e+00
-1.121391714349738056e+00
-1.119391989588270242e+00
-1.172268909931775571e+00
-1.085508038906369377e+00
-1.049109041543864640e+00
-8.667064710502947467e-01
-8.626627021066091139e-01
-8.576956844177955341e-01
-6.786151430067358659e-01
-6.677730518315228014e-01
-6.346264327565808161e-01
-6.066547107767872316e-01
-5.033486906344184497e-01
-5.141606647764694893e-01
-4.925862376912379936e-01
-3.894869463117626718e-01
-3.195503404623637467e-01
-2.670783683450303481e-01
-2.248140442357100532e-01
-1.559796246336721537e-01
3.835736664026488663e-02
1.966412519435789541e-01
2.635813756725755574e-01
3.019260398826636438e-01
3.787626193520797768e-01
6.309010672129113928e-01
6.707070233452808727e-01
8.248037111056588655e-01
8.740993577379149171e-01
9.152515696330235651e-01
8.964016249033209816e-01
9.060598661923120467e-01
8.871673865928724201e-01
1.019694187936889485e+00
1.036072610564321650e+00
9.586984950982695430e-01
1.008455906682190761e+00
9.955335404920238052e-01
1.101454048751118853e+00
1.135640493421458563e+00
1.175682454070146044e+00
1.165037725053293949e+00
1.266954917776192957e+00
1.180605501055002282e+00
1.318290468222576672e+00
1.368878389748177327e+00
1.360057533621064296e+00
1.351261907299148302e+00
1.329055900388267597e+00
1.340133847740762052e+00
1.195620179661469606e+00
1.231521743011664283e+00
1.141059208308776496e+00
9.914602006690095282e-01
1.022405907308587159e+00
9.354909670582455261e-01
7.936571718989657853e-01
8.445784950376674649e-01
7.514257676888541626e-01
6.971693668705623015e-01
6.480937292416919515e-01
6.391265755562285378e-01
5.154022136144066346e-01
5.203509055174317943e-01
4.851530043829835881e-01
3.996683826136002704e-01
2.986388217438490367e-01
3.127720189967148068e-01
1.753662363195535867e-01
1.364167714537469211e-01
1.836321342955490876e-02
-1.216105318746375785e-01
-1.985269684457422745e-01
-4.145442160519080543e-01
-4.632442708943068643e-01
-5.927317479474153439e-01
-6.441242852395381302e-01
-7.531621177432672454e-01
-7.233673024997673284e-01
-8.019787130276311293e-01
-9.810288209262290060e-01
-9.399116708380665930e-01
-7.929145376436342874e-01
-9.357729108784818006e-01
-8.921760084447928341e-01
-1.014374410036636975e+00
-1.025851160467799339e+00
-9.770870365288337744e-01
-1.079453921293972884e+00
-1.041969916913324301e+00
-1.108517953600407946e+00
-1.106235917866627005e+00
-1.239585302446473136e+00
-1.284054321812211796e+00
-1.258157322481751050e+00
-1.422071800153360766e+00
-1.356942178351342676e+00
-1.296652864869567878e+00
-1.299780567273516318e+00
-1.236961621160454383e+00
-1.227420491145362558e+00
-1.211686039534742854e+00
-1.132536115083029093e+00
-1.043508669440256664e+00
-9.872252867152994105e-01
-9.021528366426360135e-01
-8.284697632844195692e-01
-8.151966010053414147e-01
-7.245002372041857708e-01
-6.116191985256035357e-01
-6.344993888525133352e-01
-6.048601907412978207e-01
-5.099681852631643419e-01
-5.387092559532610236e-01
-4.328774822304759518e-01
-3.386761421335436339e-01
-3.423388832488740707e-01
-2.482524458668575740e-01
-1.510398464623938231e-01
-1.107550571153702867e-01
-3.119008482139057348e-02
1.237836061383935926e-01
2.949119083361154692e-01
4.267130820621440890e-01
4.212910318827248757e-01
5.311903690027044433e-01
6.454832746877318117e-01
6.645626533146532511e-01
8.217064856184970179e-01
8.272988848022690966e-01
8.133223965519372767e-01
9.206370929717744289e-01
1.005164349938818535e+00
9.992384666368206991e-01
9.953554496429068976e-01
9.605439304170736436e-01
1.072271997551438760e+00
1.107716649062309600e+00
1.124034200306331277e+00
1.180386135829300187e+00
1.149746813848662619e+00
1.305253665806232810e+00
1.274863492077178195e+00
1.317875975272056577e+00
1.401966108734090222e+00
1.444895753964580809e+00
1.349465617723305755e+00
1.444107178697899396e+00
1.350449483845340026e+00
1.336643118895834315e+00
1.283409316653836507e+00
1.230414618556708195e+00
1.170363033329576474e+00
1.105098968728374986e+00
1.046035370738851444e+00
9.934720031334894896e-01
8.647037341486526474e-01
7.865726436038794622e-01
7.629971067382042005e-01
7.555304173011003765e-01
6.043748192760265425e-01
5.948624461168985356e-01
5.244776091884787439e-01
5.722124988475322249e-01
4.516749555127598237e-01
4.068697383641057819e-01
4.014476676618418116e-01
1.919383285184257382e-01
3.261786281090694462e-01
1.325785524772422064e-01
-3.176641180708066753e-02
-6.369401087422585372e-02
-2.042333457352437931e-01
-2.585357458298288558e-01
-4.629376846144925284e-01
-4.829689184804494273e-01
-5.228444136384954311e-01
-6.916946051736301282e-01
-7.191392556536606584e-01
-7.831755927977768206e-01
-8.814576479739407722e-01
-9.192651323077710712e-01
-8.987177626442669487e-01
-9.400204698260266056e-01
-8.778910918766440474e-01
-9.578368794439084954e-01
-9.893353544833102253e-01
-1.006411119780118213e+00
-9.872066052667702873e-01
-1.064327054431564390e+00
-1.114240120400469936e+00
-1.236066726506734437e+00
-1.366243967509205959e+00
-1.270367377968073530e+00
-1.277271342828664613e+00
-1.272601446638222278e+00
-1.321904631984807788e+00
-1.429495199936638983e+00
-1.350649705592369187e+00
-1.242503016755068801e+00
-1.258331710567671013e+00
-1.158182659426000072e+00
-1.178075692011808062e+00
-1.084916321515563720e+00
-9.194664923760172970e-01
-8.582853558607159705e-01
-7.590267873872600379e-01
-7.079992033041119237e-01
-6.823100758711261316e-01
-6.331716726423433084e-01
-6.452115608312987138e-01
-5.021582438534337722e-01
-5.818371586591725153e-01
-4.186069911543179867e-01
-3.815168810888727724e-01
-3.940488242370890348e-01
-2.913583344333536829e-01
-3.941131317146419066e-01
-1.894445069349003363e-01
-5.247663419858924344e-02
6.770892127563626905e-02
2.221588916250616663e-01
2.899978550118905707e-01
4.274029864512854937e-01
4.183122007893433358e-01
6.704443787274914079e-01
7.000338732220214855e-01
7.843996974922669008e-01
8.174208774247512244e-01
9.167123793617975025e-01
9.009544761882437580e-01
8.858233289907919694e-01
1.082486643132057225e+00
1.001376097198899418e+00
1.055104324538218119e+00
1.095664701934774055e+00
1.053816982719137707e+00
1.091419943641116053e+00
1.094172738266856015e+00
1.149655356681239748e+00
1.151090519047636596e+00
1.239640685595549296e+00
1.234431171777348624e+00
1.341474198450890221e+00
1.289961187716957003e+00
1.439090917729897834e+00
1.475100126919842713e+00
1.435120221587911971e+00
1.441638732696231440e+00
1.306164828158911773e+00
1.230212506800798744e+00
1.287367080047938872e+00
1.114471715772395566e+00
1.086107018196322604e+00
1.063959409978985304e+00
9.993150924822964409e-01
8.962648848915961697e-01
8.114019514578532100e-01
6.675716977575383293e-01
7.541988335303367874e-01
6.778908383011206240e-01
6.450657429190351788e-01
5.232594786454942692e-01
6.018129300300935070e-01
5.795592580441841779e-01
3.949983380200662864e-01
3.400540560726882933e-01
2.490977206909039954e-01
2.171244202609775853e-01
1.492731615600884909e-01
-1.844305999401789353e-02
-1.403526723387875375e-01
-2.496443724233449180e-01
-1.916694737276968818e-01
-4.240866967153193445e-01
-4.656072125308041709e-01
-7.055447406127441923e-01
-7.098515920100930687e-01
-6.823880857789290655e-01
-7.584955031532497616e-01
-8.163472282746104813e-01
-8.647667640150338286e-01
-8.365177040974084433e-01
-8.896427023251212152e-01
-9.556638388204335977e-01
-8.817709265488981041e-01
-9.578049729900692810e-01
-1.029836572666846140e+00
-1.156181037563977831e+00
-1.085766151159418547e+00
-1.130502566531084163e+00
-1.096447470551690007e+00
-1.300517898614044876e+00
-1.233165839664037922e+00
-1.319468801694333226e+00
-1.316437838682161576e+00
-1.276919305786942127e+00
-1.209866928423761756e+00
-1.319305366838110505e+00
-1.332564581852222041e+00
-1.164251863493577233e+00
-1.134127833739672297e+00
-1.137441089097375180e+00
-1.070858563173337163e+00
-9.469513317715582135e-01
-8.226185291431337143e-01
-7.554693751543317681e-01
-6.837871712580043670e-01
-6.145806087075202928e-01
-6.049107550696894986e-01
-6.412476557467381433e-01
-4.265456619623483325e-01
-4.663583892551966259e-01
-3.982394849546410098e-01
-3.873855022122290048e-01
-3.663214755807884804e-01
-3.318622929535340882e-01
-1.837394818228219318e-01
-1.799644855332900861e-01
-2.735703936315075566e-02
7.590841272965953568e-02
1.570897540942824966e-01
2.420692362411585585e-01
3.938314623489287403e-01
5.105823947580608868e-01
6.480960660209473811e-01
6.953963265817635353e-01
7.227790709093587784e-01
8.192124724209642883e-01
8.089132104091512065e-01
8.882610382686451089e-01
9.620500071461799418e-01
1.036151812298270247e+00
9.362537562854168494e-01
9.411545138519767928e-01
1.076193337982455533e+00
1.098174834487443130e+00
1.165496267937377928e+00
1.182005277505184360e+00
1.159388519219032965e+00
1.319862067862429988e+00
1.228930732397153447e+00
1.394049545159140147e+00
1.312641169553832254e+00
1.407126466104905216e+00
1.357577880960184169e+00
1.402978379710966950e+00
1.460096532505438027e+00
1.322369848559612926e+00
1.382650718965034331e+00
1.243132438219549440e+00
1.152098855116694631e+00
1.106097382426254772e+00
1.016300999592388621e+00
1.061013107565618396e+00
9.369243938833027308e-01
7.952310219017456605e-01
7.476589066792218574e-01
8.102764598098267657e-01
7.180308383572289177e-01
7.372965169672127672e-01
7.001786358782310371e-01
6.340648743580268309e-01
5.226380610924086234e-01
4.520758453675092214e-01
4.992965708094451172e-01
3.759043234417115964e-01
3.586263164280474314e-01
2.278564904664792945e-01
1.428309919197464639e-01
9.343480233696008219e-02
-1.022686684911902760e-01
-1.991322534171642844e-01
-2.924233705687377949e-01
-4.078920944743224530e-01
-5.656844197379564676e-01
-5.341176173636442703e-01
-5.944939379721156936e-01
-8.085821879379376798e-01
-8.787651711166737378e-01
-8.286412116368356839e-01
-8.490272871413006017e-01
-8.561315251839964890e-01
-8.800452419596644926e-01
-9.362911162874868465e-01
-9.126719423049178825e-01
-1.014185935634076330e+00
-9.384510722884247258e-01
-1.048053989668507713e+00
-1.120158221828307044e+00
-1.086651469436823447e+00
-1.197180463321827704e+00
-1.229511318632900085e+00
-1.204398531868771771e+00
-1.192033281850246595e+00
-1.257479387369510704e+00
-1.390191684293113017e+00
-1.223668327588607552e+00
-1.395446891053287120e+00
-1.267804672529866394e+00
-1.175959779609537792e+00
-1.096617119733118706e+00
-1.031156933142966192e+00
-9.211593863937658222e-01
-1.004615036731849598e+00
-8.847946346339145007e-01
-7.952040493423939704e-01
-7.908038543690303346e-01
-7.045522808562838524e-01
-6.524565839777066723e-01
-5.144066737225496677e-01
-6.008095264690012094e-01
-4.376561172007674694e-01
-4.409200324978304608e-01
-4.095533189370492710e-01
-3.251306008749334509e-01
-2.205929491244415785e-01
-2.363641673341298766e-01
-1.155764783209362323e-01
-1.075890051645788520e-02
1.754135224741603660e-01
1.688922113418791227e-01
3.193617217132387331e-01
4.125909115411979244e-01
4.818884017115528384e-01
5.824149267502222171e-01
6.286967035330603970e-01
7.772518894727344918e-01
8.207293040102396908e-01
8.533604719516456605e-01
9.685714366569702083e-01
1.011622441484341772e+00
1.060439319361315080e+00
9.450241538338202130e-01
1.058715233962747693e+00
1.048501051673431439e+00
1.098415401857461671e+00
1.084937604292894875e+00
1.158869494290485136e+00
1.122763901485664961e+00
1.197400535269338429e+00
1.270209555640662291e+00
1.390550185952851070e+00
1.361968630153947091e+00
1.452214880776369066e+00
1.426017317480691826e+00
1.394770400051803749e+00
1.330806908325480764e+00
1.311056642895184643e+00
1.212409458726634970e+00
1.333580683972793279e+00
1.337182409049840093e+00
1.139957161682160436e+00
1.027453642755947749e+00
1.121934122448290383e+00
9.480608499959169988e-01
9.201560299849886881e-01
7.323673114021620467e-01
6.792329195041292289e-01
7.838778148600753504e-01
6.119568580529834989e-01
6.252495004368576748e-01
6.124402842838598815e-01
5.742713108997461458e-01
4.588339316706408488e-01
4.664774457974857347e-01
4.708599221253025324e-01
3.000413506208996495e-01
1.806271166908264836e-01
1.695721102338736130e-01
8.097642904900319294e-02
-2.359880840264329260e-02
-2.194733889510878388e-01
-2.681203428002065792e-01
-3.739357193533953683e-01
-4.299286954271721584e-01
-5.771461926201714165e-01
-5.992489743818638637e-01
-7.734154572487409451e-01
-8.170207624681598002e-01
-7.840508839280995179e-01
-8.328470594104868674e-01
-9.419882332644932132e-01
-7.814546272780130698e-01
-9.271989406711096393e-01
-9.336464451941298703e-01
-9.706049832523652166e-01
-9.676358809264843375e-01
-1.077545011074651615e+00
-9.551199695710378412e-01
-1.068695797944676507e+00
-1.238051188382993217e+00
-1.214403828208905356e+00
-1.144068114465375707e+00
-1.393959071851946341e+00
-1.303617672264430816e+00
-1.302390026170310300e+00
-1.307380316204919124e+00
-1.238926725032249543e+00
-1.184315743865583137e+00
-1.122821458458418853e+00
-1.111858754824043283e+00
-1.033866899067017897e+00
-9.504336556459757057e-01
-9.211560466513566414e-01
-8.718641723610465188e-01
-7.212213385747472394e-01
-7.438110285382393272e-01
-6.379600920847083856e-01
-6.239559519847287516e-01
-5.186550958558392432e-01
-5.453297832069244899e-01
-4.220495220112837620e-01
-4.342705305054271880e-01
-3.862508169353319198e-01
-2.600744966792549739e-01
-2.101260175005318920e-01
-2.339900424116282962e-01
-1.143725533998642269e-01
3.547924191301696228e-02
-1.022750553604942492e-03
1.914086524369311426e-01
3.472795554770412574e-01
3.280140310604934273e-01
6.131710942158532518e-01
6.145219444835329226e-01
7.333057901816034674e-01
8.780445436675463622e-01
8.589815948631183140e-01
9.249826017441713510e-01
8.795887300957012656e-01
9.781473040385078033e-01
9.745787242524027727e-01
1.058930734187493616e+00
1.080305390897166484e+00
1.097522176712021125e+00
1.085060834572272981e+00
1.121245770105330886e+00
1.196853388796916162e+00
1.278484779699989637e+00
1.277393489925624293e+00
1.202921239160946953e+00
1.357376255930592635e+00
1.442935607806207665e+00
1.427141779543698252e+00
1.378068269336905738e+00
1.428464337414010243e+00
1.428069851713541061e+00
1.419998953781809847e+00
1.352144813837589332e+00
1.401102414797586349e+00
1.208896718331507358e+00
1.254779682384404405e+00
1.035587460308262431e+00
1.083282292070867792e+00
1.028115839094468908e+00
9.041759919055760708e-01
8.537311895129742201e-01
7.296652597857564704e-01
8.072218390016268064e-01
7.377280660729156336e-01
6.045529561867142299e-01
5.688439444856620009e-01
5.183464652557114860e-01
5.546637570902187564e-01
5.087013313014506766e-01
4.058864912739915121e-01
2.750662967206778942e-01
3.138793618712855116e-01
1.723834772134159310e-01
1.091419298371165691e-01
1.758393902628899164e-03
-1.802414173161139277e-01
-2.359132648777985675e-01
-4.435293324977345186e-01
-5.005709328547444104e-01
-4.955546853661498830e-01
-6.311133694811915662e-01
-7.628601219731933059e-01
-7.144648830350950330e-01
-7.276293509778920532e-01
-8.589965686167339021e-01
-8.382272224307318886e-01
-9.048048529622637615e-01
-8.779157639833410354e-01
-9.863831150296133998e-01
-9.543781717579050694e-01
-1.038764431873032690e+00
-1.022941245886298978e+00
-1.155899481618133162e+00
-1.149149473485165718e+00
-1.074793464607386451e+00
-1.101196122947669442e+00
-1.238830058524957867e+00
-1.309920402040523291e+00
-1.266750497102742123e+00
-1.245000128631662983e+00
-1.222481351157804541e+00
-1.268921977413690838e+00
-1.176986995816696302e+00
-1.122311885163901568e+00
-1.131869960655059293e+00
-1.081495823987763893e+00
-9.835230802192654886e-01
-9.219240107936331752e-01
-7.595398294175620402e-01
-7.328075460077995151e-01
-6.481810330497682626e-01
-6.053937587001273490e-01
-6.177509507127718624e-01
-5.482717544354548389e-01
-5.643962302599203618e-01
-4.363558531203050594e-01
-4.248106931455662427e-01
-4.033191253541819621e-01
-3.553648764966742535e-01
-2.000805170172622049e-01
-2.320545136416337084e-01
-1.523857383640879193e-01
5.976507938000075182e-02
1.853677517405822317e-01
2.559172196298948321e-01
2.733382576090073179e-01
3.959627702333149979e-01
5.649331324691737599e-01
6.194493824303705098e-01
7.249664412156929805e-01
7.293985069236467167e-01
7.901636420863431542e-01
9.232505036986851099e-01
8.970294295017297026e-01
1.022621631347835347e+00
9.916020869562295337e-01
1.094365679918724465e+00
1.110775059961093714e+00
1.029789347201749194e+00
1.108315700397979553e+00
1.245793123073281272e+00
1.173307371121262932e+00
1.146414076039292018e+00
1.295817803009616132e+00
1.378840692550189262e+00
1.331531084932220832e+00
1.450987208073962531e+00
1.302821598129190850e+00
1.421186970155563056e+00
1.421439418232470331e+00
1.409387470353939964e+00
1.438992103669565426e+00
1.350919501540651879e+00
1.252367278424249220e+00
1.324220526706068490e+00
1.185846152406809351e+00
1.137825936380688630e+00
1.134835739591008474e+00
1.044651030653617640e+00
8.122927679942911761e-01
8.566071087078563906e-01
7.478021102512328877e-01
6.844412578212151210e-01
6.744633934866584024e-01
7.441045979452715065e-01
6.493624276309994947e-01
6.609714511506177281e-01
5.563117716668004586e-01
4.868761671753056297e-01
4.764414318104442936e-01
2.253116311849058251e-01
2.333883892052271980e-01
1.624622405691217575e-01
9.491771512994662263e-02
-5.098128726673652883e-02
-1.945275948239170161e-01
-2.608744056013618251e-01
-3.229852015248612096e-01
-5.432319470611399748e-01
-5.265858145769580778e-01
-6.567568840003104036e-01
-7.001809539366599111e-01
-6.264994738963653997e-01
-8.239110787245397249e-01
-8.444114427399063150e-01
-8.785015402803745266e-01
-8.979756387032482579e-01
-8.456370557098268348e-01
-9.131128497507258190e-01
-9.750364454075363119e-01
-9.272040610806544514e-01
-1.028667034352160892e+00
-1.031953561064535618e+00
-1.039900126260780766e+00
-1.098354537038172651e+00
-1.226821185616019383e+00
-1.171754322747628807e+00
-1.317049389463301967e+00
-1.316531374415206290e+00
-1.308058242823984862e+00
-1.283167476114586369e+00
-1.201726135093486025e+00
-1.120501111160334018e+00
-1.208611384600476457e+00
-1.149444959416957568e+00
-1.021218399852886760e+00
-9.833800783616920560e-01
-8.160040108297126338e-01
-8.241035941193064485e-01
-7.390890146999051780e-01
-7.059237080592447589e-01
-6.795907488709216349e-01
-6.182954610490942748e-01
-5.384441578071849088e-01
-5.234625965444016371e-01
-4.393897402390452012e-01
-4.052881062635926845e-01
-3.924307980532883988e-01
-2.370818790900918738e-01
-2.263360530730507414e-01
-1.988212630228469724e-01
-1.468667948365484088e-01
1.458676686162063869e-02
4.313697801069135696e-02
3.319288104783355009e-01
3.720481605224813526e-01
4.638247042593026115e-01
6.067232264679184306e-01
7.092730626518031212e-01
6.816181387111971413e-01
8.900117355020851218e-01
8.698133152646925215e-01
8.522664180759459418e-01
9.368211473092100672e-01
9.061683229854599064e-01
1.059518581072110388e+00
1.042269363835711005e+00
1.063422507137259609e+00
1.026759673002662909e+00
1.114277305486008895e+00
1.147124290074817310e+00
1.164445755488331624e+00
1.206903607572458847e+00
1.277422844367079202e+00
1.330665292019927781e+00
1.313221099867805108e+00
1.446697299984129437e+00
1.542076139376427069e+00
1.362908830132906868e+00
1.445580650494420638e+00
1.389119982120690766e+00
1.380965022076585225e+00
1.348159412763738185e+00
1.346122307029169018e+00
1.258265677848443564e+00
1.144606514851405965e+00
1.126225148709007140e+00
1.028970386943389270e+00
9.972298199037215038e-01
8.727550273829367544e-01
7.752384873766969831e-01
9.280447416943800043e-01
7.918523895224353071e-01
6.949379151646886132e-01
5.929304555654911768e-01
6.628197664132430278e-01
6.225019660073412009e-01
5.281321861600214440e-01
5.023714937306913431e-01
4.570130078935884521e-01
3.177229121561151448e-01
2.508339104012539678e-01
9.147772077674105884e-02
3.982562904172692875e-02
-6.218914532323008282e-02
-2.287540950091812575e-01
-2.548093242998241137e-01
-4.124951445147426177e-01
-5.187316699108679430e-01
-5.535154073965217192e-01
-6.704197192873307953e-01
-7.054479409368665799e-01
-7.255052973633355773e-01
-7.160303859449798081e-01
-7.894051351134945271e-01
-8.754831047989937165e-01
-8.710608235693447776e-01
-8.169291338420044957e-01
-9.439124130755719433e-01
-9.289908571778052737e-01
-8.713161501837289880e-01
-1.037635911623622453e+00
-1.019464530879166553e+00
-1.105162214713596214e+00
-1.124683892484356518e+00
-1.256372180314073050e+00
-1.239235596831231412e+00
-1.220989247466197636e+00
-1.188679360024313736e+00
-1.180539083911424703e+00
-1.333747635570856183e+00
-1.227005127066542745e+00
-1.160282332371188163e+00
-1.123319899318798498e+00
-9.759858410939099560e-01
-9.910024517777034081e-01
-9.084349348903471011e-01
-8.676965994225138701e-01
-7.585137755475175325e-01
-7.773953448036960978e-01
-7.188721071604744495e-01
-7.030037147313978885e-01
-5.861755902733853940e-01
-4.788093994075391380e-01
-4.887812457985124537e-01
-4.903268537778901481e-01
-4.431970630039298586e-01
-3.858789578220950256e-01
-3.512963778642260726e-01
-2.339187062527553207e-01
-1.934458402030079238e-01
-5.625596607813128369e-02
-1.181908155516126629e-02
1.560211714347078116e-01
1.959173616322596456e-01
3.301064861450611621e-01
5.027996475011159427e-01
5.376570768503796671e-01
6.732390294365099281e-01
7.594189870239778095e-01
8.533139632417886533e-01
8.651972062395282270e-01
9.512106042294273811e-01
8.866839821935877941e-01
1.015982728178184580e+00
1.043360571757790511e+00
9.854273577203483958e-01
1.129311302490176416e+00
1.066051592980453266e+00
1.127184042583031953e+00
1.168748326493451284e+00
1.141852324027021970e+00
1.159315142202248516e+00
1.299169837391289661e+00
1.389958736050573851e+00
1.365943415441947639e+00
1.407919069351925678e+00
1.404076234675907253e+00
1.453558943990671315e+00
1.505680836761708052e+00
1.489720411103734543e+00
1.520979551446528077e+00
1.392509589420683591e+00
1.413297037524360755e+00
1.339683067214414880e+00
1.220821104747056740e+00
1.158430649744929264e+00
1.064491939553964261e+00
1.002118424011088527e+00
9.752995932842274396e-01
8.235903219282380006e-01
7.969404100697811133e-01
8.334960231240349238e-01
7.289213834644188150e-01
6.369499654455296200e-01
6.221202727443262415e-01
5.836878645296624812e-01
4.958328423106060923e-01
5.248433398483972612e-01
4.734177658144103074e-01
2.932184314942621883e-01
1.907167326003590957e-01
1.552150273613708553e-01
5.254165077316672039e-02
-2.668889624057177445e-02
-1.247957307904927482e-01
-2.568125589955873034e-01
-3.556695379461088935e-01
-4.539051175208198563e-01
-5.031591719001241581e-01
-5.469446694470926351e-01
-7.211572313729320838e-01
-6.606899221159403535e-01
-7.100896359284216697e-01
-7.624594779573155012e-01
-8.536136724131963005e-01
-8.857642098131268682e-01
-9.089985009394855320e-01
-7.736794757739622330e-01
-9.166976213523277961e-01
-9.581180267881865831e-01
-9.628326273389024026e-01
-1.078544021508861084e+00
-1.045331033571336610e+00
-1.190372718233748461e+00
-1.223949041492536027e+00
-1.248854081812075911e+00
-1.245000136186078299e+00
-1.288926546656866456e+00
-1.236952721671856548e+00
-1.266547816854214803e+00
-1.234769276278081085e+00
-1.149337033795189145e+00
-1.169905882137862285e+00
-1.045941830330876288e+00
-1.053054445011894602e+00
-8.859652541125854208e-01
-8.995582263273654844e-01
-8.088378488798700916e-01
-6.846829457182457279e-01
-7.196263731753164139e-01
-6.418587193562650395e-01
-5.907068417805348970e-01
-4.743389145386291417e-01
-5.218062932949972810e-01
-4.428772579766388495e-01
-4.501027585712178425e-01
-3.028280273828985458e-01
-1.799954289645710470e-01
-1.890908569074598589e-01
-2.015440267594821866e-01
-3.996987247069276605e-02
6.866412575764710771e-03
1.880049362962437909e-01
1.665449155945691595e-01
4.023151567864554079e-01
5.331765231065268562e-01
6.434935630184185351e-01
6.425802139038583327e-01
7.555737448752114505e-01
8.437612906774170085e-01
8.452043622661784550e-01
9.125065742779077116e-01
9.665302912509214917e-01
1.049341088757103524e+00
1.102165912382941038e+00
1.060800215357957876e+00
1.066264744677654530e+00
1.056203017581298198e+00
1.120824294345147853e+00
1.209688243156324727e+00
1.138775582533252839e+00
1.235723090151359838e+00
1.398064780343229119e+00
1.269470757156263341e+00
1.388357004360911917e+00
1.458787758725352157e+00
1.431313071245301050e+00
1.449480184915283409e+00
1.537682677880952031e+00
1.451289264857008821e+00
1.383984237065047029e+00
1.377540604147750924e+00
1.355811716296899450e+00
1.267942469924737470e+00
1.252818227079932623e+00
1.180441304061933927e+00
1.107414550536598430e+00
1.021639132092089453e+00
9.462316586327871315e-01
9.372396699003395781e-01
8.434194732251270032e-01
8.025598384612117053e-01
7.168759684609664617e-01
6.319642640925332566e-01
7.395310624521505005e-01
5.670240641511956614e-01
5.477313155899349306e-01
4.563787550387207737e-01
4.352365096813982093e-01
4.267101617907295141e-01
3.020725583036931172e-01
9.900196912291439610e-02
6.066583487798373614e-02
-1.606293537388359116e-01
-1.966143617737079186e-01
-2.933285217165243486e-01
-3.618196990372831712e-01
-4.086600645533987608e-01
-5.281375704660373760e-01
-5.303778493536857042e-01
-6.663076685940605426e-01
-7.331669259510610326e-01
-8.064971257096356094e-01
-7.788717408184080426e-01
-7.602749559752818298e-01
-8.055413051595997631e-01
-7.366982551028082860e-01
-8.256957523686098144e-01
-9.116137412313604083e-01
-1.019342631967246504e+00
-1.051678926499649336e+00
-9.493775365065295624e-01
-1.092922197492622871e+00
-1.173872310381615325e+00
-1.131933003732468412e+00
-1.181543237464181439e+00
-1.115386563527790420e+00
-1.287683213615281153e+00
-1.291636398629957050e+00
-1.245022265580579601e+00
-1.139033885540475355e+00
-1.183846305986436143e+00
-1.190426466403076367e+00
-1.033504211399646433e+00
-1.037917321185649833e+00
-8.920267861120163566e-01
-8.335331392435465503e-01
-7.904838382529628671e-01
-8.180581450433502821e-01
-5.711279423138936329e-01
-6.029518024955812239e-01
-4.798850094858033710e-01
-5.508583358064353952e-01
-5.034331478472033883e-01
-3.511126261890840650e-01
-3.603952545039441624e-01
-3.107208033273455294e-01
-3.036182591765138050e-01
-2.698075640121463392e-01
-2.005707896521982392e-01
3.595815580481319385e-02
4.713575642740883143e-02
2.063609203304376805e-01
2.801798892043038114e-01
3.230018099359736605e-01
4.612195548766294118e-01
5.264808634577635704e-01
6.579361822430896956e-01
7.583726773841185098e-01
7.490604494376155165e-01
8.486114228931648240e-01
9.244706820390456992e-01
8.724832805071361941e-01
9.366840705686504398e-01
1.012678522278492865e+00
1.008617117747604652e+00
1.144411046557046285e+00
1.136464936263644754e+00
1.091990839006126812e+00
1.222099053219226850e+00
1.196025901369938582e+00
1.141290192517093516e+00
1.253594998998285748e+00
1.270468418925489118e+00
1.432464555086379043e+00
1.474736484239843159e+00
1.418352971050887534e+00
1.428005365728447940e+00
1.405722563856411700e+00
1.460248150581202831e+00
1.480864717087622129e+00
1.328570138988530713e+00
1.279939343392725970e+00
1.302533702092057988e+00
1.160548256385983468e+00
1.174920905362036194e+00
1.122083285863124225e+00
9.776686237311992267e-01
9.043534085793072386e-01
8.639294041114062850e-01
8.678813410160612918e-01
7.223767913440999333e-01
7.320060299760527966e-01
6.385429437487551985e-01
6.769361267009755823e-01
6.457365902193396012e-01
5.337577568305902354e-01
6.105468262847280059e-01
5.096474230965172270e-01
4.241544030700973300e-01
2.409662714932632455e-01
1.564456739121630746e-01
1.095707530599627777e-01
1.500538295265312766e-02
-1.282858552611854941e-01
-2.707734719552497560e-01
-3.071563911633844457e-01
-4.583815614024527307e-01
-4.981639438127484776e-01
-5.995744972586616317e-01
-6.490385616978039396e-01
-7.490795397150750157e-01
-8.507355217603995712e-01
-8.284928514260355703e-01
-6.819858604683592951e-01
-7.854737871652688330e-01
-8.456439175407773901e-01
-8.718634100960721556e-01
-9.236205977339747575e-01
-9.262543774316099876e-01
-1.057773495284731524e+00
-1.083993913268070042e+00
-1.114641446304286854e+00
-1.098192469769958546e+00
-1.250490210528844903e+00
-1.207545426291575685e+00
-1.277293779212956837e+00
-1.233871848443205632e+00
-1.249784859521355873e+00
-1.316128307122009566e+00
-1.187438966471160651e+00
-1.299462761004519074e+00
-1.167325238981236302e+00
-1.052538079844996810e+00
-1.039997741594444802e+00
-9.591751397244023813e-01
-7.826463809617966172e-01
-7.336044999963592383e-01
-7.403191949345937495e-01
-6.533297851582153815e-01
-5.262106374077301085e-01
-5.900704385942810992e-01
-5.526222749426965564e-01
-4.764638491681713051e-01
-4.478173215817388142e-01
-3.752614349201117694e-01
-4.315824447356015892e-01
-2.891918701175300588e-01
-2.215846360575023655e-01
-1.970670176328825629e-01
-5.360949088035320276e-02
3.187480049925102421e-02
1.703901107630653999e-01
1.316016250513138974e-01
3.784785726452169485e-01
3.791335596300458577e-01
5.227391312762602604e-01
6.353096124435807512e-01
7.664381271363043258e-01
8.238538760405889061e-01
8.335967331096619803e-01
9.808482688785136183e-01
9.951770610211404522e-01
9.991744443024742628e-01
1.053897543164213246e+00
1.092972804540140785e+00
1.126332354947348291e+00
1.106869133821302587e+00
1.160264196403258730e+00
1.114248115305218167e+00
1.126620861487085623e+00
1.331795943597638088e+00
1.339463884834167562e+00
1.233258293901817959e+00
1.355348505609580645e+00
1.522850372899892779e+00
1.515371105758457571e+00
1.435496457996545905e+00
1.442108222303072562e+00
1.406237222570438039e+00
1.464242546237895404e+00
1.410803279336316329e+00
1.293089826018920308e+00
1.240088416975967167e+00
1.225006669059814923e+00
1.131845169424769537e+00
1.040931533016591803e+00
9.983238379715878574e-01
9.376270255213867699e-01
8.587642331308524835e-01
7.971344318844870713e-01
6.717820798820240968e-01
7.082955017628522754e-01
6.946684581205607723e-01
6.422482617945065586e-01
5.412201693955966952e-01
6.068950369793771893e-01
5.530205003503548822e-01
4.829681401007397401e-01
3.151023245071468137e-01
2.854169178044968502e-01
1.529838412755686328e-01
1.045287156275696294e-01
-1.343118744544767873e-01
-1.046314605676231801e-01
-2.350366123567354526e-01
-4.136557544835763878e-01
-4.442131785132492072e-01
-5.985202063488535007e-01
-7.222509846158255975e-01
-6.623738269253314215e-01
-7.035002701239341238e-01
-8.231761126265729756e-01
-7.470527089776133334e-01
-7.550050228851723499e-01
-8.470594260966715083e-01
-8.659214849480628695e-01
-7.774451090694430855e-01
-9.149346015337940230e-01
-9.616626384956504792e-01
-1.015563524683613661e+00
-1.045768087017697523e+00
-1.122465913234861112e+00
-1.056289855785564002e+00
-1.096697015444225931e+00
-1.143676879511422051e+00
-1.232362872554719546e+00
-1.248717666484690181e+00
-1.256889727438532445e+00
-1.257924188448496183e+00
-1.206377454935886107e+00
-1.177979835243415652e+00
-1.144467532508220531e+00
-1.123615142090158114e+00
-1.054570700286585172e+00
-9.276048048572110849e-01
-8.833040827879911072e-01
-7.638522127046672994e-01
-7.363153744134131040e-01
-6.598882917241229995e-01
-5.691159590790328959e-01
-7.081334718854435106e-01
-5.194238957595831430e-01
-4.014093293041610666e-01
-4.031815162861241975e-01
-3.976560988693606524e-01
-3.452840568415740385e-01
-2.509316214834315106e-01
-2.762530251714646057e-01
-2.419151890199755517e-01
1.696585079101475824e-05
7.192271245426637427e-02
1.279442691157707257e-01
2.539788672872819175e-01
4.635326027550306649e-01
4.981910125935233857e-01
5.751139328902329373e-01
6.876778250566653039e-01
7.625871909416156447e-01
8.361231550916958799e-01
8.627596170439444379e-01
1.036579909654905096e+00
9.182702302116183546e-01
9.916279322908883032e-01
9.491358494175018423e-01
1.046549171005629830e+00
1.106346846196205158e+00
1.128864020802641477e+00
1.012129176635850003e+00
1.187666540021113937e+00
1.144141897503270222e+00
1.243069577022874794e+00
1.369555010066038081e+00
1.296358130462879066e+00
1.293413285109489275e+00
1.405030311892496941e+00
1.400861642339722213e+00
1.482814459810754881e+00
1.361611288083607985e+00
1.474257220085959608e+00
1.387995930606627848e+00
1.378989372257013679e+00
1.322898043841911786e+00
1.368494121573486932e+00
1.200261131586297436e+00
1.119463276982139988e+00
1.073071421773297507e+00
9.416811858107213551e-01
8.894971000052611654e-01
7.955954903249273791e-01
7.798069303081003323e-01
7.032765095681389189e-01
7.356693255691538758e-01
7.163359633129381399e-01
6.796422814603658713e-01
5.344503263994797582e-01
5.273420690835427527e-01
4.420663034798761881e-01
4.677117678978494064e-01
4.187859107501242795e-01
2.692430886121537359e-01
1.591397348588619864e-01
5.075978908242431697e-02
-1.379990801835656589e-02
-1.257465540165075835e-01
-1.829674932216539540e-01
-3.391627389121560365e-01
-5.097628456991755153e-01
-5.192315953384927241e-01
-5.811809440349174904e-01
-6.797267730765459426e-01
-6.820328506074730956e-01
-8.048493081862967413e-01
-8.123271253217773102e-01
-8.320781044615717104e-01
-8.436064154707758611e-01
-9.161704859503868592e-01
-9.336494903810104162e-01
-9.239142392951475991e-01
-9.200213039259659276e-01
-9.830253339510287569e-01
-1.007160769683592916e+00
-9.638981062340907791e-01
-1.125939440249706491e+00
-1.156642961104818346e+00
-1.130097177389774776e+00
-1.302154791625256935e+00
-1.292633157957797652e+00
-1.259154409076167047e+00
-1.293741964993585514e+00
-1.289990133347993728e+00
-1.208514139905512597e+00
-1.182926815905456230e+00
-1.012652312255502007e+00
-9.902523709221142667e-01
-9.394792421270499183e-01
-8.794108715916743035e-01
-8.343942965685011703e-01
-7.010139175902755371e-01
-6.283913670364184023e-01
-6.350497566831795337e-01
-6.112108582958685199e-01
-5.634109751881901662e-01
-5.706696029021129934e-01
-3.777553387706116261e-01
-5.055816481512692695e-01
-4.104787261972748791e-01
-3.134229013075681691e-01
-2.494019465995683804e-01
-2.035132360214083058e-01
-1.623755713101114051e-01
1.021946631466100069e-01
1.081493451973412623e-01
1.772307107029623685e-01
3.582177470218882442e-01
4.857399589383933347e-01
5.147846802540384514e-01
6.255191626457234921e-01
7.436104755986415737e-01
7.897458765161127214e-01
8.289140567361903411e-01
8.997884222400120979e-01
8.850687749074894750e-01
8.866306443721245767e-01
1.102769350916308566e+00
1.146877111081550993e+00
1.063926509417002508e+00
1.102351127851793455e+00
1.110525477446777431e+00
1.126807957098085566e+00
1.186900746515902494e+00
1.183112049354646755e+00
1.254843131748610396e+00
1.355049789474990662e+00
1.315399648130461729e+00
1.354634364137337510e+00
1.381925702974532433e+00
1.525355125854652272e+00
1.463868900237278892e+00
1.467988197750860868e+00
1.407910707207893131e+00
1.528473489456362966e+00
1.275410410972222408e+00
1.346335000361164935e+00
1.187533085090484830e+00
1.191658792167946901e+00
1.069525511546225882e+00
9.439737897746049988e-01
9.711213788806589697e-01
8.352408133162175785e-01
7.795811183305645375e-01
7.436329036028973549e-01
7.080573872100569544e-01
6.838211505820394054e-01
6.202265111199594116e-01
5.576093180603272081e-01
5.399438336315869336e-01
4.947552737864439609e-01
4.686326715219545358e-01
3.538973970611076214e-01
2.929904751730321166e-01
7.978981172288289458e-02
5.669566083324291406e-02
-5.347729082816529006e-02
-2.392012554155728554e-02
-1.530735082929668978e-01
-2.885194538804722875e-01
-3.962601165857284058e-01
-4.861148091836010043e-01
-6.890026420282792108e-01
-7.200531345552994011e-01
-7.038963827927535721e-01
-7.321462181318582063e-01
-7.399790437362507856e-01
-8.491219822532958261e-01
-8.646429217304744119e-01
-8.592586674164223171e-01
-8.955072077921244489e-01
-9.466678647514039646e-01
-8.848964511006482958e-01
-1.003096957335636086e+00
-9.133845604561369180e-01
-1.070827399073650765e+00
-1.043944809917562333e+00
-1.226548753420533266e+00
-1.191828919127224440e+00
-1.274280352175365838e+00
-1.240795840711141018e+00
-1.287740908677949880e+00
-1.305329797073764952e+00
-1.218274572514358667e+00
-1.251979500748750196e+00
-1.112344845961738660e+00
-1.117853355309579522e+00
-1.062310858360854704e+00
-8.961475117985194805e-01
-8.809092858686355942e-01
-8.577791577495549324e-01
-7.536542787894247031e-01
-5.102358903218385811e-01
-5.798505217985807647e-01
-5.990352651430251862e-01
-5.055937455703676253e-01
-5.068690194042851926e-01
-4.236262636606251686e-01
-4.313773971788177342e-01
-3.189610626483343481e-01
-2.956884103075754777e-01
-3.204931931381398980e-01
-1.443218338568236780e-01
-4.604764536183340862e-02
1.099553332669439137e-01
9.266883011976902174e-02
1.931350332498105726e-01
3.308181658516410328e-01
4.785961544507776888e-01
5.145580206727121686e-01
6.854900659114162575e-01
6.942502929594469574e-01
7.890752147597607236e-01
8.355630319410077833e-01
9.224649573144285686e-01
9.623021165273231148e-01
9.861361011441298619e-01
1.095768049648611520e+00
1.039927986684870298e+00
1.180890753634058710e+00
1.172466590214450211e+00
1.156838880095835131e+00
1.167483960385061525e+00
1.229601328551018558e+00
1.189748386756265264e+00
1.321344878340187323e+00
1.294563610242278839e+00
1.371631258817903820e+00
1.362136832473552550e+00
1.507580013633964100e+00
1.363967985198497823e+00
1.465408295384368342e+00
1.361358197592726915e+00
1.415737074140702045e+00
1.296800354903044683e+00
1.406350351002525922e+00
1.410439936716382459e+00
1.209640634620564370e+00
1.131877855824945822e+00
1.043100002368499091e+00
1.004304773424920416e+00
9.697600372720855955e-01
9.143056900844429569e-01
8.544947779805183163e-01
7.697381757685135550e-01
6.542859423818131459e-01
6.834256029885523720e-01
5.988646829833077501e-01
5.527829709579272777e-01
4.653711093783441943e-01
4.735911237396416840e-01
4.118132149012481147e-01
3.602263079102719923e-01
2.876670250952302332e-01
2.552481207908298133e-01
4.382206590273086955e-02
-2.599184593870557461e-02
-1.154620563736577232e-01
-2.608726501142898946e-01
-3.175354294867792082e-01
-3.554049001184828582e-01
-5.771615938304689442e-01
-7.222885863409032048e-01
-6.339233105147145109e-01
-7.597983009879516469e-01
-7.294340758478820019e-01
-8.087267462542383489e-01
-8.365562352224674703e-01
-9.395160021909885195e-01
-8.602734716399609294e-01
-9.503606815944246611e-01
-9.229364215404176619e-01
-1.049309371069858887e+00
-1.034705984590758687e+00
-9.977808937352019569e-01
-1.102480283088058899e+00
-1.202721223764930958e+00
-1.249892906853609542e+00
-1.266619622330981798e+00
-1.302297313426057146e+00
-1.301783569272956909e+00
-1.219862889377815618e+00
-1.221163859892290038e+00
-1.226672295707832205e+00
-1.138533578051238226e+00
-1.182381765055922074e+00
-1.120853423415215877e+00
-9.380382661605495276e-01
-9.553294731423266350e-01
-8.770970560834402407e-01
-8.364697019819113954e-01
-8.117675340635371883e-01
-6.382877869653722502e-01
-5.878176602974275466e-01
-6.884352291853030881e-01
-5.353326202321651017e-01
-5.406038991864422494e-01
-5.180376090393987720e-01
-3.986204007029509055e-01
-3.497992078028218099e-01
-2.310668685408940326e-01
-2.909558936844126587e-01
-1.118444292197054851e-01
-1.448775780938805213e-01
-6.310303089596555615e-03
7.118398273222290018e-02
2.353677062304712631e-01
3.596956421958386607e-01
4.036544538447519037e-01
5.720596971202115411e-01
7.015718745410042256e-01
7.193380819204954202e-01
7.450827504765813458e-01
7.930792563141336737e-01
8.834711578506934115e-01
9.617558969334415453e-01
1.066468169838326041e+00
1.029428001436059059e+00
1.021969003629165762e+00
1.008731160402095428e+00
1.044108885229658945e+00
1.047343959144116265e+00
1.182388420310707122e+00
1.179268004920873469e+00
1.247261485096720524e+00
1.294293290995168988e+00
1.329700883219170793e+00
1.385184265462902964e+00
1.377337085113464976e+00
1.472952539595854704e+00
1.436746473404496793e+00
1.358857661231144709e+00
1.464934636772390775e+00
1.407068282400415482e+00
1.355228457152735766e+00
1.354403549885703439e+00
1.215402845327760550e+00
1.195565362491070927e+00
1.134547520276105281e+00
1.101998719546260830e+00
9.020434570864402923e-01
1.013825318975891232e+00
8.093096991419542752e-01
7.385185700750662718e-01
8.477127365147085758e-01
7.230073027526651153e-01
6.139546629556039692e-01
5.244388670280606402e-01
5.933262608292014795e-01
4.849670673512847530e-01
5.227294282556689264e-01
4.658475851870134687e-01
2.959071582892271457e-01
2.205956569232273567e-01
1.384005190975251820e-01
1.095282874354253921e-01
-5.622711041905684159e-02
-1.950111923985283491e-01
-3.037302704388316066e-01
-3.930860549676788440e-01
-4.914020764370319871e-01
-5.362603418336727712e-01
-6.226138504985698763e-01
-7.557878919962980335e-01
-7.812284198393956158e-01
-7.838206447155561252e-01
-8.805195536659563560e-01
-8.717299295194426145e-01
-9.317660686087920752e-01
-8.773901730622191142e-01
-9.265075932889460519e-01
-9.431874002510807209e-01
-1.015190194526245149e+00
-9.831086743920269821e-01
-1.048244193685768266e+00
-1.120427966076199544e+00
-1.081221112360204240e+00
-1.186349683407836864e+00
-1.293765317721262909e+00
-1.237536431148883453e+00
-1.318602522794630527e+00
-1.231127193877037396e+00
-1.270720747167329856e+00
-1.269092758855382419e+00
-1.165020692227460852e+00
-1.169379641378694989e+00
-1.114744001903087200e+00
-1.029012369279944217e+00
-8.701383787091775401e-01
-9.738908356641930997e-01
-8.170105714297536403e-01
-7.031463270546346456e-01
-6.894278432611360419e-01
-5.517512452576487370e-01
-6.383189953739860645e-01
-4.950174313706701135e-01
-4.354839015220391962e-01
-3.567924924849767976e-01
-4.444087348665355930e-01
-3.455567301641728761e-01
-2.644168972028741460e-01
-1.626748577271116269e-01
-1.468554736491520518e-01
-1.442958326022054927e-01
-8.668391884636117428e-02
7.970605943077271882e-02
2.153127443079918268e-01
3.559955462562997552e-01
5.583677427300935969e-01
4.982504404435907919e-01
6.403014265906572522e-01
7.531800611425045755e-01
7.673041492702862287e-01
8.356898547633018204e-01
9.583972526705036854e-01
1.007916031961000991e+00
9.505891264579909850e-01
1.132525674932498116e+00
1.081212529667577638e+00
1.017035590507161524e+00
1.059176680015637473e+00
1.079343696744864634e+00
1.041851403329211223e+00
1.191657793186756686e+00
1.297296053655762726e+00
1.246521630351408172e+00
1.364068643232997813e+00
1.359562759711322899e+00
1.362638132087162113e+00
1.466544698206543096e+00
1.428365968965338517e+00
1.518752649432795421e+00
1.413384713132056492e+00
1.387984167197646057e+00
1.357613230664572512e+00
1.245136685425502154e+00
1.240077129486470753e+00
1.242855302839313003e+00
1.137021447544167119e+00
1.105309169134293112e+00
1.089999708857401384e+00
8.860176289273903327e-01
9.144874681435851693e-01
8.026416101557769522e-01
6.532393514781043020e-01
6.605785153207708316e-01
6.583492780794004684e-01
5.763869989777301583e-01
4.561775979445486517e-01
4.998219744307916823e-01
4.128172872561597928e-01
4.383360959334196560e-01
2.850712547289270260e-01
1.904146046765069766e-01
1.362464576932855831e-01
3.893759153146307550e-02
-1.333832201111092020e-01
-1.825908543924746608e-01
-2.713005649615300996e-01
-3.656680064847145917e-01
-4.173583114705069486e-01
-5.050901687230163750e-01
-6.390920218846611878e-01
-6.277560587640785839e-01
-8.238709025274909559e-01
-8.122493769519849582e-01
-8.234766205238570613e-01
-8.443817310210439686e-01
-9.093856746829585003e-01
-8.277712717246373808e-01
-9.910781377822197591e-01
-9.582475677371606881e-01
-9.838618731594355182e-01
-1.051570834275441069e+00
-1.057210812363716057e+00
-1.010159193487681684e+00
-1.130430730171005038e+00
-1.213506401854344663e+00
-1.228831688294732105e+00
-1.258933595861829735e+00
-1.233701264556618327e+00
-1.293119844057037948e+00
-1.296826859162865553e+00
-1.223005916741453980e+00
-1.155499554746718616e+00
-1.141489599763897411e+00
-1.136859358750635707e+00
-9.826811287331167488e-01
-9.652584738982853407e-01
-8.432457726549995591e-01
-8.067359490958651014e-01
-8.753428671873557665e-01
-7.053079288663073321e-01
-6.622827351450922828e-01
-5.818027727837639107e-01
-4.518568160147269364e-01
-5.868255588916112542e-01
-4.600346894846953361e-01
-4.359036661210825003e-01
-2.785511990997513454e-01
-2.860112177245878184e-01
-2.946205610669709873e-01
-1.666213031177694315e-01
-9.093199726580682152e-02
-3.024033011201379857e-03
1.505417847151755972e-01
2.376468364153981327e-01
3.074843228355569891e-01
2.499426849955485030e-01
5.075841236948160917e-01
5.722871757591888597e-01
6.842863988825294008e-01
7.199260610834451457e-01
8.193126345259871268e-01
9.873578721461505614e-01
9.356944690404818132e-01
9.792807250277935083e-01
9.635730882870795488e-01
1.086735232092663983e+00
1.090840438721062622e+00
1.105298601254300461e+00
1.047309575861312014e+00
1.156660721229755717e+00
1.185809062843089512e+00
1.202756993163614840e+00
1.313333945683951232e+00
1.318029508015453155e+00
1.326159819146871977e+00
1.334146770649983438e+00
1.480331066383042016e+00
1.457516381948289919e+00
1.450261725541134528e+00
1.330320276060698248e+00
1.438294391055551680e+00
1.324515147394606407e+00
1.269707167262270620e+00
1.231730894107818441e+00
1.125776778569588910e+00
1.078609324356518906e+00
1.021886015855956398e+00
9.356933809548657610e-01
8.778186301987700446e-01
8.453400040631006140e-01
7.705985522410103705e-01
7.509267816470615031e-01
7.620754231079822638e-01
6.212026224830683452e-01
6.142306541626013638e-01
5.909969894763874576e-01
4.665837412904034753e-01
4.912057288477628125e-01
4.196216415590907634e-01
2.969860663335927575e-01
1.163561473637954868e-01
5.913623014735777672e-02
9.911068368297171194e-02
-1.084107921279602038e-01
-2.687825575454584892e-01
-2.796253666513950353e-01
-4.445451297063567897e-01
-4.137963062211719167e-01
-6.410309945792385111e-01
-6.607128703889503241e-01
-7.465374722344034764e-01
-7.454561121956125858e-01
-7.887451592305546599e-01
-8.426712086541970903e-01
-8.322877721981513099e-01
-9.156084641170834093e-01
-9.431074095819075298e-01
-8.593402369573104327e-01
-9.791222159676716830e-01
-9.462784136519424294e-01
-9.380419654795792983e-01
-1.072026218793257213e+00
-1.154648391656576401e+00
-1.220563389734316440e+00
-1.222287707524024603e+00
-1.278819284763385689e+00
-1.305850863718072796e+00
-1.297067016175217802e+00
-1.212826395102169608e+00
-1.307332478782983864e+00
-1.295343448657201746e+00
-1.123168401484997858e+00
-1.115747889919494806e+00
-9.908173580402376279e-01
-9.022456953548025904e-01
-1.014870924321909840e+00
-8.741411255780620060e-01
-8.133359221687689322e-01
-7.535645278100413513e-01
-7.397127361207405105e-01
-7.006908537088710753e-01
-5.714469994269897324e-01
-5.836238641248798764e-01
-5.234950352776445159e-01
-3.908551088137999785e-01
-3.856124318959690545e-01
-3.471680141512815676e-01
-3.517606381881875355e-01
-2.405103166593308417e-01
-1.440700340281551028e-01
-1.537292676803444502e-01
4.155526153246141136e-03
1.054819276081875312e-01
1.991483828143372770e-01
2.892057932373742202e-01
4.334274974658592350e-01
4.154557200948792994e-01
5.895324224186877515e-01
7.571365802702716419e-01
7.980870982720188467e-01
8.748926302317231452e-01
8.577003541262991915e-01
9.532054517606315391e-01
9.557765281203406404e-01
1.002559825588536180e+00
1.080563091711396417e+00
1.098745157785176563e+00
1.065997109950061805e+00
1.033027578600940855e+00
1.155241537141142416e+00
1.116071091968069640e+00
1.255616451794412392e+00
1.260197854064737166e+00
1.277572842763231131e+00
1.288452263949652732e+00
1.336253892131286092e+00
1.356734034769749631e+00
1.409853835079341478e+00
1.454740951089306122e+00
1.466426275023204440e+00
1.410791916210178298e+00
1.372564682935929703e+00
1.372839326994533593e+00
1.172536883967429056e+00
1.168538332192319062e+00
1.120752531079367564e+00
9.890784266828775984e-01
1.038227286867152932e+00
9.816652262175552535e-01
8.066066222989369816e-01
8.155067546486698404e-01
6.683253947717909815e-01
7.428854771792638978e-01
5.870182813154638524e-01
6.198637675996498952e-01
5.728661695620773653e-01
5.067885956213321608e-01
4.512454367261472532e-01
3.813748223183262009e-01
2.191741164983738166e-01
2.691300463675841415e-01
1.304420467166008124e-01
-1.157831281796781187e-02
-3.655827379454956727e-02
-1.538823392284763281e-01
-2.505061375349306174e-01
-3.821106440431579765e-01
-4.131409197165660796e-01
-4.974551759934193740e-01
-5.788793652627605146e-01
-6.601544980297574527e-01
-8.095919755448113264e-01
-8.915295937335108167e-01
-8.722637282065581754e-01
-9.028922818951716778e-01
-9.202156590643508771e-01
-8.980244611830549006e-01
-9.262181322003597561e-01
-9.855731155002975807e-01
-1.040303251973049514e+00
-1.067940821517508132e+00
-1.062990932099977304e+00
-1.076935342898320824e+00
-1.141185678804296222e+00
-1.218765412266703763e+00
-1.309138120457665311e+00
-1.320319823535616832e+00
-1.306970401852636465e+00
-1.336528328107524866e+00
-1.308544099732318777e+00
-1.251334492045393043e+00
-1.170762133321358700e+00
-1.196974121312903261e+00
-1.128094788105902024e+00
-1.020846629945236561e+00
-8.597402360559529555e-01
-9.580832260881677609e-01
-8.257841490522931371e-01
-8.073004193340469481e-01
-7.601557383712677085e-01
-6.597061750161143934e-01
-6.351664329933577324e-01
-5.605671718359105382e-01
-4.482581859442831829e-01
-4.068872988860662288e-01
-4.847454504129084518e-01
-4.048247221600931312e-01
-4.119825825932729169e-01
-2.674750598226622866e-01
-2.618792926298474377e-01
-5.038643363535608849e-02
-2.712524249011354777e-02
1.034882175401386634e-01
2.063714241039569242e-01
3.546706283349386757e-01
4.077055082429476007e-01
5.193902731519454141e-01
6.038139847762251655e-01
7.068079315555751974e-01
7.896920035859308351e-01
8.730162016761687793e-01
8.699838376612348823e-01
8.715487024810139038e-01
9.020486473296568386e-01
9.981575304236702806e-01
1.037557149479338303e+00
1.067617320837711326e+00
1.062009168898759848e+00
1.134203522027527278e+00
1.099368637915589142e+00
1.088846978407757682e+00
1.164250634206202895e+00
1.272503654055171074e+00
1.305513408961048061e+00
1.432553638604254775e+00
1.294214354722676985e+00
1.376736395770165711e+00
1.293978821128977108e+00
1.345894129612454693e+00
1.468060745503701803e+00
1.327312762928936074e+00
1.383225807303359201e+00
1.314655432140707347e+00
1.270874136242924557e+00
1.205615354711120579e+00
1.025885771187748263e+00
9.882641537786730490e-01
8.482525063314737546e-01
8.297684815718255891e-01
8.407838009775600030e-01
7.593404410148890671e-01
7.046583567135228376e-01
7.083914712450359863e-01
6.130877218227853698e-01
6.429546651760302822e-01
5.646475497912107899e-01
5.357242491657645544e-01
4.629075126110425153e-01
3.960482058407545081e-01
3.051915992083455431e-01
2.168351643312852739e-01
1.600882738992535359e-01
1.378171676829124948e-02
-8.929929341036227375e-02
-1.751506183413614748e-01
-3.097266607661988136e-01
-5.092316995365717691e-01
-4.591522787387060101e-01
-5.472469122180009249e-01
-6.330280414914110088e-01
-7.618545311777763507e-01
-8.071386639781542582e-01
-8.465903239705334649e-01
-8.227066771403995782e-01
-9.406485226284829748e-01
-9.042607185884381504e-01
-9.280237606321973809e-01
-1.026337908176062630e+00
-9.684736135363769538e-01
-1.117104959074888937e+00
-1.064747033518118835e+00
-1.052221210645603922e+00
-1.134621274744121333e+00
-1.197151172304207201e+00
-1.248061530274945152e+00
-1.180849068123924095e+00
-1.223564751388464655e+00
-1.316465963448316012e+00
-1.332175239583248461e+00
-1.306151035882158418e+00
-1.311585956181614998e+00
-1.261049013705793254e+00
-1.245711663571354100e+00
-1.177754638966199252e+00
-1.102516370431941617e+00
-1.019070077914588701e+00
-9.808771188617885217e-01
-8.925131581313275886e-01
-7.990651724589696858e-01
-6.263574435558366682e-01
-6.625291570589822987e-01
-5.500312146837106342e-01
-5.406666559420344464e-01
-5.364174533512122700e-01
-4.439415650896034182e-01
-4.197381186706085621e-01
-3.654973849369868577e-01
-3.519983049878213088e-01
-2.888727952358194351e-01
-1.978472949602893549e-01
-5.317358421853903006e-02
-4.322737551565274811e-02
1.219329348285918685e-01
1.827167291875763655e-01
3.433492485783759540e-01
4.455064025163644748e-01
5.489739306196048663e-01
5.548004023616106561e-01
6.776279420790563002e-01
7.759565519472838568e-01
8.792209093607752379e-01
8.701111788767306177e-01
9.203661945896084440e-01
9.583298787198606394e-01
9.137328997618017201e-01
1.014466945693025535e+00
1.057147263136272608e+00
1.043726151855310036e+00
1.015958181783218839e+00
1.136831599482441391e+00
1.111438044167432970e+00
1.159528385839244669e+00
1.265690099144623826e+00
1.260955429866523314e+00
1.405172520910050737e+00
1.412434051224637166e+00
1.429858221387194872e+00
1.373762273548133184e+00
1.411737188531918319e+00
1.335137449880064109e+00
1.395246844288228871e+00
1.319152741440156484e+00
1.269557999004376159e+00
1.118063696642058513e+00
1.065674097331135606e+00
1.106289318552509782e+00
9.741045486909899465e-01
9.558214090502964444e-01
8.654918194888360228e-01
9.039447294149325351e-01
7.148594488271049485e-01
7.819060546846404725e-01
7.047388077124732142e-01
6.244433554487041071e-01
5.662128111153910126e-01
5.498833392831242728e-01
4.889232703809841540e-01
4.069291597059807031e-01
2.349312881253997898e-01
2.871816788623084982e-01
2.913138354337015956e-01
7.068254521484695907e-02
5.386884621365682635e-02
-7.199462816722543290e-02
-2.193037104273783955e-01
-3.189804966815812381e-01
-3.953824944487722703e-01
-5.260330123351554255e-01
-6.462741582914172112e-01
-6.670010527898876385e-01
-8.145822250217613636e-01
-8.484253525258997897e-01
-8.822169334144902564e-01
-9.230407822391555328e-01
-8.998589987130052315e-01
-8.525886554993802324e-01
-1.052313771965581068e+00
-8.748675375045611435e-01
-9.565509410446391136e-01
-9.747673660284441599e-01
-1.024310667994026147e+00
-1.079896222331639066e+00
-1.095592660050702660e+00
-1.207572920071959821e+00
-1.184931477643654363e+00
-1.241963394263512432e+00
-1.292184412696141704e+00
-1.274484407547232578e+00
-1.275880094791195241e+00
-1.313028308964385049e+00
-1.286093805761229447e+00
-1.259494076404413576e+00
-1.290943114902467492e+00
-1.140745447498610954e+00
-1.010814100335103882e+00
-9.845210898195564386e-01
-9.825517483891343939e-01
-8.539341148092544076e-01
-7.482031013537053799e-01
-7.685137669321685516e-01
-6.368363570542391328e-01
-6.472903727853718259e-01
-5.928790399516004062e-01
-5.784377138902393467e-01
-4.753016785169484892e-01
-5.079091214933904030e-01
-3.238038034175543811e-01
-4.257163664634251443e-01
-2.976277623000649908e-01
-1.749583354137024538e-01
-1.206580631721957952e-01
1.389439358652270334e-02
1.505401191171537867e-01
1.855370309417524455e-01
2.405449500078087888e-01
3.813784257522111476e-01
4.916385726457674354e-01
6.526113057119027339e-01
7.835989735944950407e-01
7.811192453521393908e-01
7.859693099732353305e-01
9.877013559017007172e-01
8.550527042549391776e-01
9.800678984113146974e-01
1.028306621964093948e+00
1.000118815330882871e+00
9.693297774087830110e-01
1.006824508220385717e+00
1.130645489860784059e+00
1.099321503209262696e+00
1.022000699663562662e+00
1.216097198858260287e+00
1.240671348284630771e+00
1.331299739270761284e+00
1.350537517692070644e+00
1.379213534096114246e+00
1.407370064618888694e+00
1.319278736515455908e+00
1.423787295471163894e+00
1.439784249628954127e+00
1.332291179555563421e+00
1.305904424769791516e+00
1.266849854382881002e+00
1.184709947921795070e+00
1.156939079492995015e+00
1.052524903984569660e+00
1.072553422803941725e+00
9.368006455685344847e-01
8.626396102104955110e-01
8.304881023625263481e-01
7.410590770314855469e-01
7.639609590318428012e-01
6.526971773209806482e-01
6.238828252892464343e-01
6.210230216965086925e-01
5.135799969336273252e-01
3.938891540192361318e-01
5.404218695130410532e-01
3.525405727412431744e-01
2.458010019571799654e-01
1.999905442867197791e-01
1.167775700836781727e-01
-4.884745165575355569e-02
-7.839199081563361093e-02
-2.038377560264913457e-01
-2.929429230454961286e-01
-4.338043868914546186e-01
-3.955809125648446223e-01
-6.526289580289807990e-01
-7.364321160051748860e-01
-6.999870935070287015e-01
-7.989951030973676538e-01
-8.600188574765466054e-01
-8.333865591210540824e-01
-9.558257092016402279e-01
-8.916164235817787276e-01
-9.593511905859227751e-01
-9.361565548619620314e-01
-1.146015803964952173e+00
-1.062851914297884059e+00
-1.081125028945129296e+00
-1.132065694022430957e+00
-1.148144603684674747e+00
-1.227644647989188487e+00
-1.217757534733563407e+00
-1.205795075337602329e+00
-1.348892347393082503e+00
-1.311710091538439427e+00
-1.392443845639302458e+00
-1.292149401640520612e+00
-1.381543002324973513e+00
-1.294395053120314554e+00
-1.210535633984009873e+00
-1.188289090842754359e+00
-1.121265214854668013e+00
-1.052360642058137286e+00
-8.296227343663589160e-01
-7.669364902949401541e-01
-8.412937180198173381e-01
-7.333586183762055288e-01
-7.274773422923355159e-01
-7.068557711939911226e-01
-4.746066830514070189e-01
-6.109877218143651145e-01
-5.111110765193835892e-01
-4.074830416843923109e-01
-4.494566559089712143e-01
-2.966368856087237549e-01
-2.443113139391195898e-01
-2.712481176540863514e-01
-2.441278819887398588e-01
-7.894249227188543383e-02
4.343419713411517113e-02
1.529179224110181201e-01
2.241433086933154739e-01
3.227649848874805660e-01
4.907342551698730682e-01
6.117119766476705189e-01
5.453883532438088544e-01
7.022570702814356913e-01
7.410042339288882562e-01
8.661369541015633278e-01
8.233256359524646628e-01
9.074061542792265511e-01
9.152267764295862751e-01
9.557346962017879699e-01
1.037257459694489015e+00
1.008763156884572965e+00
1.060412276487143535e+00
1.059405067705693870e+00
1.078299391576075017e+00
1.223690641898393272e+00
1.194018510958290813e+00
1.273344065587630913e+00
1.292538442853471414e+00
1.304800358942825866e+00
1.360707782203971705e+00
1.342509848766772595e+00
1.341415415221907770e+00
1.389056045949004226e+00
1.469835844736677943e+00
1.307907043512319012e+00
1.331531729316222545e+00
1.180276045536432283e+00
1.144284604728649235e+00
1.023854795790966277e+00
9.618575813750912529e-01
9.373395413002160170e-01
8.646804973351162049e-01
7.568034985938869585e-01
6.427697692454126255e-01
7.398492782642768217e-01
6.484911306102425499e-01
7.145066759144567126e-01
6.417786539766332510e-01
5.259031507718469056e-01
4.567788534969738912e-01
4.238806676707634891e-01
3.896848451467633256e-01
3.399029032052620636e-01
8.886220615825990432e-02
9.752516457643821413e-02
1.405996396033660362e-02
-7.201855737203097241e-02
-2.209175335711426602e-01
-3.087554360798405173e-01
-4.475752565797118665e-01
-5.058436243178936476e-01
-6.701784483366267642e-01
-8.027897289469732023e-01
-7.030381463312682655e-01
-8.058617535240051311e-01
-7.447940756590464284e-01
-8.790686033674648403e-01
-8.912476544226717312e-01
-9.429571755109782405e-01
-1.015044822999120244e+00
-1.006861727712956345e+00
-1.057569677784782058e+00
-1.001395411415529235e+00
-9.244621767474104912e-01
-1.062653280184959304e+00
-1.169936182128571200e+00
-1.252156188735334963e+00
-1.255560724267275496e+00
-1.233892541600204895e+00
-1.293288517534035398e+00
-1.286250887181580316e+00
-1.261688554502977455e+00
-1.447065980014325515e+00
-1.332131069580812399e+00
-1.277420679841792639e+00
-1.235572412592724323e+00
-1.173647912405736848e+00
-1.071117837253454663e+00
-1.051895912593335813e+00
-9.622694497173319705e-01
-8.750818847910715181e-01
-7.907159889372898931e-01
-7.087414579306852147e-01
-7.667004321609840467e-01
-6.731319622609563957e-01
-5.548441917500321896e-01
-5.384519931170024254e-01
-4.957471106023125240e-01
-4.645090137299344724e-01
-4.828726402610908908e-01
-3.051148978186548621e-01
-2.989362052597961950e-01
-1.592440458277021853e-01
-1.726803318316845470e-01
-4.565816232966978666e-02
3.278773010793753495e-02
1.624046322233052841e-01
1.478626009532292840e-01
3.356048819333769528e-01
5.385189061119418641e-01
5.790889510404637619e-01
6.755297374232960284e-01
6.798200244029541928e-01
7.212140404788631720e-01
8.616600015532243084e-01
9.115988857926377031e-01
8.758632420912063621e-01
8.776564163929995166e-01
9.527097680540406177e-01
1.009620434304394632e+00
9.727496072440537933e-01
1.056493792743836480e+00
1.053362006892882397e+00
1.173502570960884173e+00
1.149438099934182000e+00
1.216519394464388837e+00
1.274560939480948951e+00
1.270132500463778680e+00
1.326491272117872544e+00
1.257825553953381581e+00
1.404572346712948727e+00
1.383072265259850386e+00
1.353119124525054229e+00
1.347518663378482140e+00
1.293792213576653749e+00
1.188648801454642134e+00
1.162104872428964208e+00
1.140769477926067088e+00
1.066795626209802617e+00
8.876259865788171943e-01
9.223555863389547582e-01
7.532175826858809042e-01
8.024286802383624462e-01
7.443346521081545264e-01
6.682634849639786934e-01
6.957204586561778203e-01
6.062258537522619006e-01
5.100469121707953413e-01
4.857960160651754733e-01
3.813748866167082641e-01
3.448179632306462850e-01
2.686523999138168972e-01
3.072697587009178832e-01
1.053293620786021206e-01
4.423279303436512822e-02
-4.916068012167884582e-02
-2.019757102587247388e-01
-2.165834648639814730e-01
-3.333529441651531533e-01
-5.551867593830472902e-01
-4.998295159048692371e-01
-5.559609280676883758e-01
-6.201517960827169773e-01
-7.643968585792183523e-01
-8.566047394826473704e-01
-8.956601716875535191e-01
-8.882586010020583345e-01
-9.306128687656032294e-01
-9.532803676425265493e-01
-8.848611949926166176e-01
-1.039830191242267610e+00
-9.326909825128876230e-01
-9.137281715353358091e-01
-1.156592166397290233e+00
-1.105467516501676295e+00
-1.208004458262638803e+00
-1.120292748400064875e+00
-1.172401305927398996e+00
-1.312324409461822494e+00
-1.333862059019547797e+00
-1.351902239179012755e+00
-1.394265092411224760e+00
-1.313387522929998719e+00
-1.264621972694449425e+00
-1.284163114694765850e+00
-1.291761434518517326e+00
-1.157398840543403917e+00
-1.168295913407022768e+00
-1.050576945005942342e+00
-1.033001373707127302e+00
-9.203273986789055616e-01
-7.594154173624373394e-01
-8.640423863683114325e-01
-7.564958101284019465e-01
-6.546024587341046086e-01
-5.993913004830738744e-01
-5.837980720391012790e-01
-6.618511726294401543e-01
-5.644315003240834017e-01
-5.911695909329381937e-01
-4.061926596040509874e-01
-3.162622538583593768e-01
-2.988963606450842359e-01
-1.504734183321968510e-01
-5.453211152013850982e-02
7.210627287839874167e-02
1.733608411370902991e-01
2.587684622300872039e-01
4.479184197868602557e-01
4.999232200914809354e-01
5.638604578903921860e-01
6.868513099993555082e-01
6.572061234343234970e-01
8.040406106469719649e-01
8.201777231656269818e-01
9.092463267940169569e-01
9.368329940514872334e-01
9.731336270438778469e-01
8.545464109535418906e-01
1.008460160467366418e+00
9.277145132880676437e-01
9.693406411103033804e-01
1.054945287080128802e+00
1.151551754593266086e+00
1.051056471088086530e+00
1.189169404215947079e+00
1.163378129971714969e+00
1.235905173855353256e+00
1.270195031409068198e+00
1.288703991315504727e+00
1.346282777111765361e+00
1.349591322105147873e+00
1.395481772589763025e+00
1.268148974937806761e+00
1.200365296619402278e+00
1.229819579466503665e+00
1.221973086561655153e+00
1.091773652605731559e+00
1.087784532177277441e+00
9.171133868902436870e-01
8.488480540522898021e-01
8.444646867488683206e-01
7.690044653248648832e-01
7.155644193234254047e-01
6.541328659114643562e-01
6.214720618095146421e-01
6.351400507283436747e-01
5.845506067225525459e-01
4.838950062581770517e-01
4.174285075145751644e-01
3.110320124041256462e-01
3.334582258767667673e-01
1.758413699235172323e-01
1.980611108274739629e-01
9.973557188230713910e-02
-4.629771613875258152e-02
-1.858506761234831606e-01
-1.870000682404496795e-01
-4.627660424210529033e-01
-4.716954562228293235e-01
-6.552631869732137293e-01
-6.966486132883207283e-01
-7.467315244074946845e-01
-8.411499240455354576e-01
-8.882015857724734342e-01
-8.848288922441708282e-01
-8.595859642919807531e-01
-8.819892135149808299e-01
-8.721471414271861899e-01
-9.423424548419447877e-01
-1.024469645543614860e+00
-9.919292643719066493e-01
-1.062076565015216412e+00
-1.146795224611329322e+00
-1.065715626617313339e+00
-1.233259703797120910e+00
-1.251764979124803112e+00
-1.277526827333014925e+00
-1.305611374535551095e+00
-1.429818313639551475e+00
-1.389297593236717754e+00
-1.383436518244705704e+00
-1.465554306511100302e+00
-1.407327108557186790e+00
-1.251882813192792376e+00
-1.192726030051615371e+00
-1.111339835756939065e+00
-1.116652234157591961e+00
-1.050694651182448425e+00
-8.586833226863095359e-01
-8.806570674885604300e-01
-8.199069928488050829e-01
-7.636267213575411716e-01
-6.552662030769028645e-01
-6.130312312857859602e-01
-6.517022537650242198e-01
-6.095059867122285535e-01
-5.950849225533414444e-01
-4.371986109205884263e-01
-5.164684304183977392e-01
-4.505104889147673042e-01
-3.987575253949126042e-01
-2.503533616905589954e-01
-1.832008712825852759e-02
-6.648394524457749977e-02
-1.283785044382226154e-02
2.002589562214464602e-01
2.754164969082629200e-01
3.245343084966836322e-01
4.902261964536855920e-01
5.301471968644096977e-01
6.172800159501626860e-01
7.605212100515761353e-01
7.607996171529260998e-01
8.422184797065477291e-01
8.634953219751254627e-01
1.020102410786038138e+00
9.364349848680953992e-01
8.769167414836156471e-01
9.103780283177846933e-01
9.877197216597405349e-01
1.018978924109454676e+00
1.006908882171348552e+00
1.052369985019373511e+00
1.130611784449521595e+00
1.103428686894778465e+00
1.271129089159376724e+00
1.271251881500911063e+00
1.341803661561470573e+00
1.300868205674070355e+00
1.451263761980274847e+00
1.328500537543177096e+00
1.403976497472417151e+00
1.213981920010350324e+00
1.211198707502471494e+00
1.231509892914461890e+00
1.223081469750784134e+00
1.145719395389843021e+00
9.800233023283352329e-01
1.015030139854934399e+00
8.686807886912657484e-01
7.613151047704816987e-01
7.232980711338847790e-01
7.488978596663899978e-01
7.087242386296991326e-01
4.832232892569766070e-01
5.819429653794416790e-01
5.076415892885602910e-01
5.182111972066684169e-01
4.513085787518468783e-01
3.635493493636053897e-01
3.476223963487882207e-01
1.674687387387320259e-01
1.437982031632433488e-01
6.867793335329597237e-02
-9.465983278501596820e-02
-9.045044559845331900e-02
-2.523345449185113165e-01
-2.914938690343968908e-01
-5.299591821126843350e-01
-5.652434178608228832e-01
-6.001285381973620048e-01
-7.272832261259944975e-01
-7.923752895383189276e-01
-9.129586928198968332e-01
-8.778560823090770793e-01
-1.016687905676164627e+00
-9.308706830868325177e-01
-9.315352779618389922e-01
-1.054591830853077061e+00
-1.063258823024690880e+00
-1.030601147601389211e+00
-1.097799448017015678e+00
-1.182546919748289627e+00
-1.201158709977423467e+00
-1.139016906404255236e+00
-1.203170370860957128e+00
-1.267297239340414938e+00
-1.278194555682764744e+00
-1.404196543768416072e+00
-1.363493885031747510e+00
-1.388012075555570268e+00
-1.362539494417832842e+00
-1.385674995464119430e+00
-1.253894908502797056e+00
-1.203233863844895835e+00
-1.215768739158190614e+00
-1.083895889618471386e+00
-9.965235414125354074e-01
-9.522408529940248334e-01
-9.069288854172835590e-01
-8.169145420843741956e-01
-7.249768036771562230e-01
-7.229694061355897983e-01
-7.083334334044442127e-01
-6.221915377353210985e-01
-5.777361508070112395e-01
-4.724298006383922943e-01
-4.596626219408824765e-01
-4.417488425587677847e-01
-3.756255944453037454e-01
-3.653950623164807787e-01
-2.868283372558641520e-01
-6.746165793413501366e-02
-5.407855832907456500e-02
8.253874922755527477e-02
1.046262808555734752e-01
2.584626161568498448e-01
3.716550145925196502e-01
4.598046555480861386e-01
6.264217735800184927e-01
6.609682199283930526e-01
6.943138168342073424e-01
8.373883562787794999e-01
7.958568699678184588e-01
9.127257718464730774e-01
9.101489243281479791e-01
8.739013475212191739e-01
8.977963017157948311e-01
9.496724153284362702e-01
1.024023178866825479e+00
1.043240546243739741e+00
1.025042279921642763e+00
1.184736244273800088e+00
1.117859651473986915e+00
1.257039436164638868e+00
1.242588756397428051e+00
1.279312531898556315e+00
1.315223857485863679e+00
1.400351142703417873e+00
1.303093527530567952e+00
1.303293389043070905e+00
1.345802898414043991e+00
1.281959760495630096e+00
1.199424008396235308e+00
1.211269014299299007e+00
1.172484087128101704e+00
1.146481490499228872e+00
1.074684381368870012e+00
9.844389265492737850e-01
9.026857022596392888e-01
8.380466752522266471e-01
7.182376728241849362e-01
6.099572661231090764e-01
5.106433518861064336e-01
5.536321578450684733e-01
5.995958499388870377e-01
5.168746437407184535e-01
4.543686169434587030e-01
4.647985956582779132e-01
3.271588652404541220e-01
2.682508205331363693e-01
1.929866061814311251e-01
2.262702343021000817e-01
-5.245086794371384142e-03
-8.042551308019572909e-02
-1.865538740325310973e-01
-2.838183887686250850e-01
-3.989451943851022309e-01
-5.689065774123686081e-01
-6.095454724867142016e-01
-7.018808085871143243e-01
-7.783456486225630577e-01
-8.602472524125989173e-01
-8.366588002787872513e-01
-9.156711355988023104e-01
-9.007511556314160561e-01
-8.901711417359133849e-01
-9.753828511789665034e-01
-1.079374665338759920e+00
-1.034636555186822404e+00
-1.085238733999121186e+00
-1.186096036600939874e+00
-1.049880959754277088e+00
-1.175210380127911014e+00
-1.267660410866501941e+00
-1.230999252904170671e+00
-1.252026618923702372e+00
-1.303234096157209532e+00
-1.389104270500512550e+00
-1.392635644330314282e+00
-1.425632340274546994e+00
-1.329264979585615958e+00
-1.453083919715058681e+00
-1.256226919700964340e+00
-1.291278993616713056e+00
-1.183481030967446612e+00
-1.088290270203888799e+00
-1.033257824991387963e+00
-1.059978242014871563e+00
-8.893832229029738912e-01
-8.682273712382426734e-01
-8.488317778707115124e-01
-8.004222036771906357e-01
-6.786333412911186302e-01
-6.543306477568309187e-01
-6.044361093687385944e-01
-5.608646621703029522e-01
-5.216191243665390109e-01
-4.800837109250458146e-01
-3.550978582637596692e-01
-3.487410886852786440e-01
-3.356467671070920700e-01
-2.717714457793448668e-01
-1.289002339789997453e-01
-4.641187101253526487e-02
6.869940750591174705e-02
2.949573512594888536e-01
4.644606486433995318e-01
4.513956769346706421e-01
5.514292071834973052e-01
6.471962865701949008e-01
6.302983596536531063e-01
7.987508738219403215e-01
8.000206135855637557e-01
8.469303916978048186e-01
7.825256905315336464e-01
9.320240332023560503e-01
8.630449725696229812e-01
1.002286009650172893e+00
9.713372623201325107e-01
1.057341229299325835e+00
9.709809361635838298e-01
1.050397957592832388e+00
1.120686835632307643e+00
1.163390964487077239e+00
1.226477740944087902e+00
1.170563343621899399e+00
1.281945690076037092e+00
1.259151275174478890e+00
1.219099223595482728e+00
1.291538016501953878e+00
1.326160968764578563e+00
1.284766862039551594e+00
1.310851354314383821e+00
1.263485219315011010e+00
1.064218514958982897e+00
1.001480281488947188e+00
1.009283797055811505e+00
9.601472280337219889e-01
9.134556330401184532e-01
7.640177316782744699e-01
7.568834745465747860e-01
5.737847667158239018e-01
6.132225344934481015e-01
6.575100999376997102e-01
6.521450756645038593e-01
5.158822527549019599e-01
5.273057415581363649e-01
4.048675890489581985e-01
4.581411132567901889e-01
2.233824399715292619e-01
1.539285831677668637e-01
1.000350576480735915e-01
1.067390559396493160e-01
-6.835836409614769182e-02
-2.491981672093645517e-01
-3.334853858806581250e-01
-3.608468898769019439e-01
-5.050604912256679846e-01
-5.502589147562324534e-01
-6.737927431238031062e-01
-7.571673798536892042e-01
-8.167426468076931512e-01
-8.649118109440570024e-01
-9.614924679840817223e-01
-8.716112522068404367e-01
-9.751967584800884659e-01
-1.086116034729894153e+00
-9.446984912096108022e-01
-9.939327047803340198e-01
-9.573010883788273251e-01
-1.110002664589724741e+00
-1.146801642474321037e+00
-1.163405772419339845e+00
-1.157808164910505422e+00
-1.428008681972473548e+00
-1.305469155177666263e+00
-1.454451111913686701e+00
-1.386118980441743087e+00
-1.420821632847174998e+00
-1.426548469586474743e+00
-1.418641634674225438e+00
-1.395368995833972559e+00
-1.322722358589418112e+00
-1.345807861232173108e+00
-1.143656738701866571e+00
-1.267342903220632255e+00
-1.013817612016862046e+00
-1.015358931632686978e+00
-8.875269577833924117e-01
-8.368165624233833144e-01
-7.559229299780930722e-01
-7.335269127025333402e-01
-6.842653762197296041e-01
-7.531394674888949314e-01
-7.068050259291086546e-01
-5.679436165392479641e-01
-6.129832759243121210e-01
-4.021936367206851437e-01
-5.074352716436147936e-01
-3.141393650379142866e-01
-3.517075430316352058e-01
-3.414511888587901112e-01
-9.566646412344875783e-02
2.309247130755984201e-02
1.579100501401844159e-01
2.477292386076117847e-01
3.557805223260123162e-01
4.719794537179058946e-01
5.478154742274595757e-01
6.192590321458274483e-01
6.809013798652165939e-01
7.158398712753383242e-01
8.328662682979439680e-01
8.007564419553709900e-01
8.249992889715024313e-01
8.426817798261659886e-01
8.664683182453055688e-01
9.741170741377942477e-01
1.006067950884268036e+00
9.869490935112344987e-01
1.032154638531980639e+00
1.110608765407146370e+00
1.136734276899261875e+00
1.189415317122694438e+00
1.089360565906507317e+00
1.182345656189631500e+00
1.277254936082388825e+00
1.193209534304316755e+00
1.324350667351618993e+00
1.286195009529429889e+00
1.274872132033934014e+00
1.340251360252562085e+00
1.157791537955125794e+00
1.152182002636026770e+00
1.146314960208902223e+00
1.028801359610181043e+00
1.020383073168286137e+00
9.185723358591957322e-01
8.586069553080337702e-01
8.142556376050928968e-01
7.941461209769208329e-01
7.430785842522397155e-01
5.798061338256518260e-01
5.525319440842524354e-01
5.136906433554514484e-01
4.731313834877168834e-01
5.032121170173625702e-01
3.229192914943475046e-01
3.704169909176331932e-01
1.598046254899870566e-01
2.430433247853189815e-01
1.118321223947189719e-01
1.847723652380627371e-02
-9.229069205405303344e-02
-2.037180411385241530e-01
-3.288434486433737813e-01
-4.840163761606726123e-01
-4.800238262142128565e-01
-5.675170449547287665e-01
-7.175736089308604182e-01
-7.324864571515600220e-01
-8.549072236153891780e-01
-8.728717180487876037e-01
-9.254854979400879422e-01
-9.898547734512294083e-01
-9.020937338008025996e-01
-9.809194013013922131e-01
-1.046155491887621691e+00
-1.005259934597859006e+00
-1.125928087036502045e+00
-1.074987805446916633e+00
-1.166956797224602216e+00
-1.098632478221231779e+00
-1.228674690272277825e+00
-1.240829483144393341e+00
-1.380124260657491941e+00
-1.418392351739361512e+00
-1.403405100943980743e+00
-1.530881294098746626e+00
-1.457179002887823982e+00
-1.465565279438146629e+00
-1.341124544658770068e+00
-1.332938735551782772e+00
-1.306706273729686396e+00
-1.243778003856523595e+00
-1.151141987260676292e+00
-1.061687231127657949e+00
-9.849627130513082252e-01
-8.959878447586823169e-01
-8.320065603028488077e-01
-8.377733813006569275e-01
-7.720467361411553764e-01
-7.626106476994014560e-01
-7.290691353314493472e-01
-5.727086491956099312e-01
-5.839107279996109678e-01
-4.940463897673337823e-01
-3.882982076434994823e-01
-3.784641108008333088e-01
-3.818712786627180833e-01
-4.451394491176406953e-01
-2.494423790543753849e-01
-2.181027803468461590e-01
2.032574635064872404e-02
1.740365737450350059e-01
2.379359623776343691e-01
2.904682518670034241e-01
4.274138118922946039e-01
5.235254266588194039e-01
5.203134183567917903e-01
5.529264950119784361e-01
7.752747197146734326e-01
7.590076569175698840e-01
7.568400266509841545e-01
8.211327953712693750e-01
8.714497557387468341e-01
8.743072581036771540e-01
9.398592964188392518e-01
1.024825889588463435e+00
9.808532001675442924e-01
9.875068995091899060e-01
9.930338259511329868e-01
1.087718572569651654e+00
1.060914418394836689e+00
1.051241653269797904e+00
1.219438333933135166e+00
1.198910373062353374e+00
1.285287141292281721e+00
1.262099077662561575e+00
1.246083143441940377e+00
1.248180348711170007e+00
1.183760075128188261e+00
1.171708772437885182e+00
1.190845695211203203e+00
1.045486492663377787e+00
1.066329906573460162e+00
9.011069480292362988e-01
8.681874829765722223e-01
8.393161920883656091e-01
8.046102538164983109e-01
7.402766260413941035e-01
6.214673771945291580e-01
4.987712550774795472e-01
6.507029823618692976e-01
5.114076936840010745e-01
5.465452625344108251e-01
4.558001664071327230e-01
3.997105834468551722e-01
3.679910166060665899e-01
3.001309788599699768e-01
1.878606261183406734e-01
1.927075007084025349e-01
-1.225443723822286501e-02
-1.368968553288915646e-01
-2.549479450397333369e-01
-2.147501974545973358e-01
-4.759894593662595819e-01
-5.485323924215387281e-01
-6.664580390631131834e-01
-6.786504846236259825e-01
-8.085152526443293297e-01
-7.736519203492280283e-01
-9.101188088735500115e-01
-9.860959003790075172e-01
-8.490298203350225004e-01
-9.552822750391342099e-01
-9.790924067598952840e-01
-1.082603075808447946e+00
-1.067271786160493674e+00
-1.057195889921500154e+00
-1.226284577414087362e+00
-1.158455201901272602e+00
-1.251146092306771873e+00
-1.162907035021900404e+00
-1.266244365315432940e+00
-1.365466756711112506e+00
-1.445164478644182404e+00
-1.460086427738916948e+00
-1.441575696008321916e+00
-1.454523965166220734e+00
-1.267184816414038462e+00
-1.385985050847846844e+00
-1.415586458646137524e+00
-1.269438139808946264e+00
-1.319323159849681515e+00
-1.271509610771950127e+00
-1.174253202806224694e+00
-1.060549681386317999e+00
-9.335804191717531619e-01
-9.558796232786789249e-01
-8.555829200060764972e-01
-7.308818193305938182e-01
-7.688921208692118814e-01
-6.862282433040414187e-01
-6.439993510678793109e-01
-6.682451457901354974e-01
-6.061209703076978483e-01
-4.620401871426875751e-01
-4.203031958638673848e-01
-3.616517671343864593e-01
-3.743843436155090409e-01
-2.043868209603240949e-01
-1.333666592917226168e-01
-1.014629802626953736e-01
8.743585392049685323e-02
5.604894106167959689e-02
3.160338229005066335e-01
3.527853290745908144e-01
4.521018063058869219e-01
5.558216285137074220e-01
6.543125444960660175e-01
7.496814187645418626e-01
7.893612554822775351e-01
7.975998038080578389e-01
9.558838729577447957e-01
9.299513212056841338e-01
9.889019874262527932e-01
9.138700106478430119e-01
9.713386511035091431e-01
9.523499110770911047e-01
1.011046605176258106e+00
1.046014450061285350e+00
1.029071463065579062e+00
1.049558964141716233e+00
1.130982947312183740e+00
1.219822561643936654e+00
1.278534247971329085e+00
1.280476983577621075e+00
1.316994723349006247e+00
1.282275805400257429e+00
1.347063034031531936e+00
1.240419530174694529e+00
1.224817344295665578e+00
1.180701835641137398e+00
1.087906522929864117e+00
1.046793968309097655e+00
8.310351719385714597e-01
9.056618848654670595e-01
8.076454393265473097e-01
6.886549223814830700e-01
6.178115289522119191e-01
6.094260411078655792e-01
5.793373102759259430e-01
5.499727172045943968e-01
4.879404614670774798e-01
5.150980216127249989e-01
3.483521256425556878e-01
3.568080203220922453e-01
3.514333532477908473e-01
3.325282605888954524e-01
1.689720450844576505e-01
1.786744287377774465e-01
-1.821131610492442848e-02
-2.207221831673574497e-01
-2.197881874201116359e-01
-4.156274692907226398e-01
-4.151272645829595098e-01
-5.293858570504808014e-01
-6.106686552742185414e-01
-7.403256902708768017e-01
-7.872487383785083948e-01
-8.972741621492996700e-01
-8.660913911806424892e-01
-9.325412672553081705e-01
-9.204994948401241661e-01
-1.031736816828362269e+00
-8.987045348037333570e-01
-9.793302907076846253e-01
-1.024378433527121324e+00
-1.124786136503620693e+00
-1.099209545867978477e+00
-1.221111661954841443e+00
-1.225236435112148303e+00
-1.226863166718158205e+00
-1.285172776421372731e+00
-1.398164715890405363e+00
-1.356209428829685759e+00
-1.483812283703120016e+00
-1.419553484486889339e+00
-1.503118767482582552e+00
-1.429119642095278309e+00
-1.381512642501974808e+00
-1.290159728832833474e+00
-1.270383346073640896e+00
-1.104679544600184027e+00
-1.234855003001491536e+00
-1.136219283761632948e+00
-9.629802669906127877e-01
-9.601720631028641817e-01
-8.771479757822557843e-01
-7.931527778723095334e-01
-7.531018096553416807e-01
-7.654533982561488870e-01
-5.942679981620547780e-01
-5.400626039047261573e-01
-5.477627213413385210e-01
-5.201612454560656795e-01
-4.626509324815050728e-01
-5.007319066493663984e-01
-3.434298748396616419e-01
-2.856962912293986023e-01
-2.491814009031788069e-01
-9.689408946405383971e-02
1.152441946994533367e-02
7.434559139347152179e-02
1.552608209830810826e-01
2.548310168163084866e-01
3.985479408257834311e-01
5.166090836863918012e-01
5.482484790394130947e-01
6.345329042083198701e-01
7.654299381696347826e-01
7.466740152540695119e-01
8.111151291300905397e-01
8.442548790948360971e-01
8.573389307058194575e-01
9.377681408908009608e-01
8.830111810515175463e-01
9.003328526119406261e-01
8.869368844877389968e-01
9.766391187570047094e-01
1.014161924217901634e+00
9.693488251889740281e-01
1.122085641148933499e+00
1.211200801443956809e+00
1.203082436840008818e+00
1.212857368205619180e+00
1.196964858294778500e+00
1.220189543780651364e+00
1.380595667343664346e+00
1.233561372380372445e+00
1.220613668558969023e+00
1.187423354154220512e+00
1.165891631008497686e+00
1.178779828373113236e+00
9.690123721339366503e-01
1.075073653480879132e+00
8.506431596711717669e-01
7.626512899209385576e-01
8.037106040144252894e-01
7.203048980794781730e-01
5.798667526352049295e-01
5.804522124112431181e-01
5.047780639482146725e-01
4.720876158164706293e-01
4.230657939337477136e-01
5.001578742825560919e-01
2.860445383613369197e-01
4.171163120013443582e-01
2.248161921298146015e-01
2.667078392688584376e-01
2.927125386504635801e-02
-7.917902257517574205e-02
-1.524028989424693059e-01
-2.477267235438098403e-01
-3.904629458579045864e-01
-5.126507550780258216e-01
-6.565518871381834654e-01
-6.638680955162512554e-01
-7.674167502633481019e-01
-8.858846982981495310e-01
-7.707355619277762582e-01
-9.771815619646022633e-01
-9.964347963326960489e-01
-9.886132443083870402e-01
-1.054563416604799908e+00
-1.100977284587571603e+00
-1.145350146821286996e+00
-1.083185802826201583e+00
-1.149659912339270118e+00
-1.112089358587181165e+00
-1.185694871291197883e+00
-1.223938643743776478e+00
-1.273825874963159910e+00
-1.304501842370149323e+00
-1.268426320506196747e+00
-1.310107857067863257e+00
-1.489404355068790764e+00
-1.511879814908881903e+00
-1.452833103992693387e+00
-1.470553599502266495e+00
-1.354184762958967614e+00
-1.382962201864283980e+00
-1.336223405113550644e+00
-1.234874321509844997e+00
-1.185533772203400726e+00
-1.121659382770126001e+00
-1.103508114067508483e+00
-1.000661967493213789e+00
-9.278539624693739052e-01
-7.938021542146495024e-01
-8.011968347728152251e-01
-7.518725868444925409e-01
-6.807048959935292354e-01
-6.159233331345663753e-01
-7.061980170272216251e-01
-5.837920071212014950e-01
-4.852861307319380479e-01
-4.149271581495022621e-01
-3.718255980348139644e-01
-2.758992479413755472e-01
-3.103081661043463058e-01
-1.411032320857208422e-01
-7.014399350200964389e-02
1.262758465195945035e-01
6.931680099927201022e-02
2.749669192552008368e-01
3.180253872192135289e-01
4.861233512663916123e-01
6.119162413610704787e-01
6.154573439480129915e-01
7.003616244574581984e-01
7.530371305795640069e-01
7.389258995443274136e-01
7.916697100809747534e-01
8.020706031860965757e-01
8.219547174953528712e-01
8.503146487015122990e-01
1.038971860253018242e+00
9.729730016245131674e-01
9.438931019273458789e-01
1.061294691240234345e+00
1.041389879090628634e+00
1.145078438803110332e+00
1.090541070809308621e+00
1.079822168210398781e+00
1.221095329020452036e+00
1.258995836754821518e+00
1.368264418878982092e+00
1.315478665752389809e+00
1.211668328344700507e+00
1.170591020463448428e+00
1.219246651843549190e+00
1.184162598511915299e+00
1.093227497224009914e+00
1.094194491933933033e+00
8.629067903641050030e-01
8.504100409188695142e-01
8.078355500956255764e-01
7.812086744419222128e-01
6.183758586241926425e-01
5.560356232928385101e-01
5.411765274593758335e-01
6.871924815465653147e-01
6.017035843783634652e-01
4.813384552054699173e-01
4.443465248476446972e-01
3.400250543376219237e-01
4.421000489541387912e-01
2.545228753095342689e-01
1.908145198902760908e-01
1.188613375972323583e-02
-6.869123836791213994e-03
-8.197702633255438132e-02
-2.146441749322542392e-01
-3.464920184504208800e-01
-4.994965330090813671e-01
-5.698593519193597690e-01
-6.477405072920864315e-01
-7.965830977375757405e-01
-8.437977882122659201e-01
-8.785138766525677489e-01
-8.707913534347686557e-01
-9.302748824546663853e-01
-1.011633738494380319e+00
-1.020389915784623458e+00
-1.012963015114938470e+00
-1.123026493571841478e+00
-1.167726036586197669e+00
-1.140741551264913722e+00
-1.217267939666122123e+00
-1.112287009817414907e+00
-1.292131951486539254e+00
-1.237363404788458299e+00
-1.381921053731199889e+00
-1.335410043157840398e+00
-1.410514338296928738e+00
-1.382796564352638979e+00
-1.381479258364204155e+00
-1.432173376492686723e+00
-1.464077292056934931e+00
-1.364123868995257505e+00
-1.405546872154750604e+00
-1.356126968864469040e+00
-1.211115129174367366e+00
-1.133551225053824663e+00
-1.089808377910805648e+00
-1.022804136737117231e+00
-9.959430826076536292e-01
-1.002922337483567183e+00
-9.103954140952655871e-01
-8.317561287410099036e-01
-6.864040901862701327e-01
-6.675894503381430978e-01
-6.259420564230699924e-01
-5.526431595278621378e-01
-6.335696884862294098e-01
-5.541419462421947051e-01
-3.927710013844776249e-01
-4.321525743016923493e-01
-3.169608694443178387e-01
-1.681177492691109665e-01
-1.009781757218548848e-01
-4.281481369121369063e-02
6.193895488876358102e-02
1.778864501539550447e-01
1.745883060447767643e-01
4.235075582152529883e-01
4.568959619348565981e-01
6.240137037912768525e-01
6.237167886312827703e-01
6.447622096577303452e-01
7.651313661700464008e-01
8.722691339731930560e-01
8.332430899636389388e-01
8.930122762494616673e-01
9.027846981158021977e-01
8.543047229250926300e-01
9.019568461035628593e-01
9.599179061529233836e-01
1.009915277094958874e+00
1.058937232430702702e+00
1.118884695801292795e+00
1.050486367471332505e+00
1.078251995735086011e+00
1.237316813373456004e+00
1.221904858790655135e+00
1.262090232985542793e+00
1.245514730196164210e+00
1.162604333451678018e+00
1.310156647999010326e+00
1.235565507662314211e+00
1.207058193547458691e+00
1.146671597553387212e+00
1.105585157959324549e+00
1.004514054214951546e+00
8.523408330521610177e-01
8.432693639257434759e-01
8.281976923440608207e-01
6.984902581707650437e-01
6.544177684447425314e-01
6.605498798129681992e-01
5.478588526048399077e-01
6.210477335761609430e-01
4.499608074332115404e-01
4.783024514470358146e-01
3.747786654786209315e-01
2.963709855507445923e-01
2.232529473006834853e-01
1.173130554155406846e-01
8.090204544425257105e-02
1.184400435486776260e-01
-2.094895710344903822e-02
-1.652661800861370545e-01
-3.189581107558510653e-01
-2.785094291982700421e-01
-3.619953724324635469e-01
-6.000245020047565436e-01
-7.088157379744666198e-01
-6.701642783625538780e-01
-7.576250759906696386e-01
-9.454799309986010591e-01
-9.330095978125528822e-01
-9.609404806448894609e-01
-1.066201251705505282e+00
-1.107315622447977876e+00
-1.018048613530127877e+00
-1.040730088083480220e+00
-1.136510831708391400e+00
-1.137738955337257662e+00
-1.277669425556340554e+00
-1.196516318662740330e+00
-1.230581545149607603e+00
-1.242342910967670022e+00
-1.387446805106253622e+00
-1.405041986210471716e+00
-1.490920888364882790e+00
-1.437704354196057022e+00
-1.443736977959068524e+00
-1.411952050296386707e+00
-1.436739555548093294e+00
-1.490880489293803457e+00
-1.250889919343914913e+00
-1.369679305093911115e+00
-1.327777064309961341e+00
-1.272034333386965033e+00
-1.079949014695143372e+00
-9.869780643170422696e-01
-1.004789051514948905e+00
-8.941126750151551228e-01
-9.297677310130924022e-01
-7.812294590501485114e-01
-7.166871264865699587e-01
-6.522797664719388600e-01
-7.078693727344248510e-01
-6.586517459720779843e-01
-6.240427578006193521e-01
-5.628639179013043004e-01
-5.075799341047910751e-01
-3.918289079120363949e-01
-4.020184269782896558e-01
-2.077257188482115324e-01
-1.279058880307681612e-01
-4.131817036171731711e-02
1.350194815764635403e-01
1.824122235680152582e-01
1.688137184609733166e-01
4.128521808018860706e-01
4.243646374659925113e-01
5.082727631301432458e-01
7.452111123700730921e-01
6.606205009540019324e-01
7.994201838149905814e-01
7.507087475715732428e-01
8.358613419741522943e-01
8.091161485676638954e-01
7.962038357702991842e-01
9.190035632560812351e-01
9.211313180744764573e-01
9.200411570967307329e-01
9.322475140748275324e-01
9.963899631207203678e-01
1.186445248943370778e+00
1.069095521563020679e+00
1.176312978770887696e+00
1.123232292084711537e+00
1.247574243699365093e+00
1.193877688537367421e+00
1.381374443393431850e+00
1.205281995202714285e+00
1.260670459148110156e+00
1.126233590148484343e+00
1.221332338411114771e+00
1.196504315699248311e+00
1.154113649654049834e+00
1.036181580760406895e+00
9.386071181115155371e-01
7.640980403525412523e-01
7.188798497321039482e-01
6.734307697333454801e-01
6.397899339489456771e-01
5.955147752003134842e-01
5.311722128917281127e-01
5.367723906412009693e-01
3.839746030591620896e-01
4.447844647675012753e-01
3.714503625240198059e-01
4.052717333993864912e-01
3.729208288035839591e-01
1.603251525777986686e-01
1.907357025140903883e-01
1.345745431437067596e-01
-8.224826220661871773e-03
-1.303579870107957062e-01
-2.687458186035014407e-01
-3.479891932983138481e-01
-4.882550552538290622e-01
-6.035921398718417930e-01
-7.283755036692172169e-01
-7.739146174703253056e-01
-8.681903014613086000e-01
-8.412455728548624556e-01
-9.002671438026303985e-01
-1.055192511835529645e+00
-9.935114832543309182e-01
-9.224624883827934330e-01
-1.095609873095667153e+00
-1.092785345315523626e+00
-1.135856667989616264e+00
-1.170609900349243837e+00
-1.146966965468052546e+00
-1.171472087236352877e+00
-1.337521449130622209e+00
-1.305855669118894946e+00
-1.402178222611707659e+00
-1.457169755082007079e+00
-1.381360893635840359e+00
-1.342469683496530841e+00
-1.379279029591555572e+00
-1.432761820206271075e+00
-1.495057325174421692e+00
-1.459451144467875938e+00
-1.382807948826116018e+00
-1.280264574616099438e+00
-1.276291431294818812e+00
-1.231756436152804834e+00
-1.164958035660511371e+00
-1.049729164873114629e+00
-8.786147950203189172e-01
-9.261681570113067252e-01
-8.614489820950536059e-01
-8.127044847047637521e-01
-8.031008684074187887e-01
-7.574030823601527462e-01
-6.478547567233816640e-01
-6.835874578997288564e-01
-5.822247712662700359e-01
-6.407795241372005179e-01
-3.947166501776954717e-01
-4.235649310695938086e-01
-3.246683718705309363e-01
-3.238571256013430544e-01
-1.284897199600661677e-01
-7.545100550313652010e-02
8.466988963033764137e-02
1.320987314252005662e-01
2.151814092685656599e-01
3.009484283847674302e-01
5.203911091910191633e-01
5.204564496020813724e-01
6.526116301139138764e-01
6.805444956128605671e-01
7.825667278459471632e-01
8.221636953488317134e-01
7.894049971481978956e-01
8.196308424602756215e-01
8.842089936405150841e-01
8.439196612138349929e-01
8.681766993496123908e-01
9.131862509204680123e-01
1.038262498487183105e+00
9.926098222198066479e-01
1.049470210495457634e+00
1.129971126485374677e+00
1.151630424029685074e+00
1.296911055705060045e+00
1.110209499234705799e+00
1.347988910491766834e+00
1.313644580627709058e+00
1.232689467550840856e+00
1.324274919121874561e+00
1.237078054144953088e+00
1.132396864433950823e+00
1.108413385307408960e+00
1.082114104743213234e+00
9.777877062097881655e-01
9.667000430557992630e-01
8.703203436579109997e-01
8.600756906220060616e-01
7.631993816106277251e-01
5.797130645163319773e-01
6.526349156582866851e-01
5.572827843215906185e-01
4.742826767755864981e-01
4.710058782477489769e-01
4.623463471689905901e-01
4.003066777978672164e-01
3.127781524991158912e-01
3.047719412244270787e-01
1.628277090286048556e-01
1.286212122937167857e-01
1.219633432078530283e-01
-6.251423254269014573e-03
-1.592397576440794382e-01
-1.992702569602707863e-01
-3.514699171935308231e-01
-4.623889235499993866e-01
-5.758566539366399839e-01
-7.506491900305811704e-01
-7.437626733731664830e-01
-8.644609803974370177e-01
-8.616101335370474068e-01
-9.749302367575254369e-01
-9.630586142929071780e-01
-1.019987339953876804e+00
-9.441774119243134811e-01
-1.085152117103031388e+00
-1.132677384981714885e+00
-1.181221686118580472e+00
-1.096693037157316031e+00
-1.117172178387838777e+00
-1.285050963570486315e+00
-1.268974261713136542e+00
-1.198021134307002633e+00
-1.382019918461235619e+00
-1.323850802681630023e+00
-1.494946329597531154e+00
-1.437816468270062265e+00
-1.521053565064284463e+00
-1.453142167843657351e+00
-1.368326885433515994e+00
-1.452683600706524691e+00
-1.334946208309260474e+00
-1.413415538148848460e+00
-1.266101706374371805e+00
-1.214200318994110184e+00
-1.115674803029121698e+00
-9.890483974296567782e-01
-9.481121529572016371e-01
-8.358542370880809314e-01
-9.035563770643535442e-01
-7.662264759221384391e-01
-7.736889526338452949e-01
-6.847213282981793325e-01
-6.398506947939049949e-01
-6.915087982703516101e-01
-5.983916658680804579e-01
-5.909847748815892921e-01
-4.968458938613819487e-01
-4.277779467926712820e-01
-3.321775724690581577e-01
-2.271764311735257336e-01
-1.545633724295106259e-01
-6.298372556209196060e-02
7.740456908692056048e-02
1.416875610497823346e-01
2.822187164412910398e-01
4.394118372252052152e-01
4.114795857275135305e-01
5.653647097750731376e-01
6.800736137810967641e-01
6.774002872059262659e-01
7.412628689043226915e-01
7.534671551963740832e-01
7.225492996771269993e-01
7.516923626467185704e-01
8.604901206272931313e-01
8.591221454690244341e-01
8.642340057229189743e-01
8.857393346084941887e-01
8.637165583781760692e-01
9.850008651161933360e-01
1.112026610282978112e+00
1.173833601342438637e+00
1.079221099404055861e+00
1.141893016469367472e+00
1.293781342253263356e+00
1.252846156002122013e+00
1.262033051183390375e+00
1.286522701491357612e+00
1.221730844402449723e+00
1.190830130386330676e+00
1.181217117650718018e+00
1.145372990740544772e+00
1.062789668767280649e+00
1.065936415210557042e+00
9.303806542682369063e-01
9.047298805467897109e-01
7.953524664249528309e-01
7.306095159155600038e-01
7.296186189017319634e-01
6.371011654376078637e-01
5.156613885672252096e-01
4.956572932347727001e-01
5.202673826295030057e-01
4.519232751514815627e-01
3.961413219074525482e-01
3.689146436713152677e-01
3.325447667150894238e-01
1.296172435683067836e-01
3.660653116077208780e-02
-2.992806277590681630e-02
-2.500776182171979972e-02
-1.863650491615779781e-01
-2.104620647233883257e-01
-3.079780123335226771e-01
-4.614203602606481991e-01
-6.240498134326382118e-01
-6.199822784402305720e-01
-8.367802430071874520e-01
-7.842772145182992372e-01
-9.373165423242780792e-01
-8.976145339279811841e-01
-9.708977315255362672e-01
-1.025602183625622166e+00
-1.064656874141392207e+00
-1.031417445106484587e+00
-1.093974783651497473e+00
-1.131151050009472137e+00
-1.093844005545336007e+00
-1.213517237341437127e+00
-1.183492032489881440e+00
-1.247582868397614453e+00
-1.312161698178063940e+00
-1.371270042009690160e+00
-1.416274677482365574e+00
-1.397215653975355076e+00
-1.433994606934760663e+00
-1.403853993113099330e+00
-1.519375093454640391e+00
-1.497190202042287810e+00
-1.415680501980958850e+00
-1.381012679617884764e+00
-1.331786059622934504e+00
-1.141956721102855621e+00
-1.214192938493071194e+00
-1.083483490798378135e+00
-1.082672518634433700e+00
-1.048011683750710743e+00
-9.332850722032209889e-01
-8.843327801708005254e-01
-7.762669408894353751e-01
-7.876710393645285357e-01
-7.583682482937146307e-01
-7.163112886689149139e-01
-6.824561699143102400e-01
-5.044105577235755700e-01
-5.069623331607925332e-01
-4.554416252302651014e-01
-3.380893581086866773e-01
-3.092633042351448092e-01
-2.501194392991925031e-01
-2.130829498452932458e-01
-5.944702304455070502e-02
-2.620451050224945067e-02
1.932722389390623130e-01
3.436178064634828888e-01
4.009968524048729832e-01
4.319276337751831729e-01
5.939933581507377269e-01
5.638111229786416656e-01
7.067185402887785628e-01
7.220683929112392541e-01
7.334962603626148381e-01
7.661050442563741569e-01
7.954377850525549132e-01
8.798784920694245892e-01
8.317763656910732717e-01
8.144121932498807892e-01
9.926930003916301093e-01
9.516324186154754283e-01
8.273237228932216469e-01
1.088876330250999835e+00
1.027932429101603651e+00
1.199607094118941841e+00
1.157628542245331849e+00
1.174586121247286563e+00
1.257456472534113079e+00
1.247458886167555736e+00
1.142326959817709264e+00
1.263281871163948633e+00
1.126911363940716893e+00
1.159171444715305421e+00
1.102717517672166858e+00
9.896994634347413555e-01
1.004520031649214884e+00
1.004982383564226867e+00
8.145952501579523108e-01
7.664745246439463866e-01
7.138318332598786453e-01
7.069686619302973929e-01
5.321504914390966512e-01
5.361669004007214578e-01
4.939146034491632697e-01
5.611128753688363613e-01
4.955905188281718998e-01
3.209309936814477848e-01
3.258378482582255375e-01
3.033106094499855576e-01
2.019792540126770786e-01
1.357239251278419545e-01
2.257843846424792411e-02
-5.292745416376015005e-02
-1.274460487701346290e-01
-2.277164347521993815e-01
-3.472172865945344356e-01
-5.642150870108032512e-01
-5.914885038425827801e-01
-5.629071852586955416e-01
-5.990273361280535891e-01
-7.563485685007302894e-01
-9.102562830992464438e-01
-9.731135544701751128e-01
-9.836944165284977615e-01
-1.014676791418819723e+00
-1.030753417722797272e+00
-1.128530791241297848e+00
-1.053634211683792010e+00
-1.110092786921622388e+00
-1.048494231533151799e+00
-1.143569362574549775e+00
-1.147811814032445366e+00
-1.283772933472399291e+00
-1.205121206847608040e+00
-1.337656835338983941e+00
-1.328762169135225157e+00
-1.418530413593532158e+00
-1.449420442633587047e+00
-1.422585805766900746e+00
-1.469168958304253980e+00
-1.451968089997802691e+00
-1.333972786837613445e+00
-1.344140360170620996e+00
-1.223683116269838278e+00
-1.355418141756248751e+00
-1.193531452812752747e+00
-1.063590967022206568e+00
-1.028141607700105986e+00
-9.805033574301532662e-01
-8.814675073501291314e-01
-8.901604042100546010e-01
-7.617717508676096205e-01
-7.606729701174343994e-01
-7.575972777073348707e-01
-6.883805088592469534e-01
-6.315173407222096635e-01
-6.317076724234862439e-01
-5.996212685242060525e-01
-4.728022653597869218e-01
-4.603377572314947264e-01
-3.568007411916993554e-01
-1.876288865913733339e-01
-2.327918159919470376e-01
-2.667247836630276536e-02
9.968608335759090999e-02
6.479033215894414166e-02
2.788501989282051730e-01
4.631902517155989107e-01
4.620383328479527041e-01
5.040778943255790345e-01
6.227580282331168782e-01
6.382323819893090944e-01
7.754908437628669216e-01
7.764994630196535574e-01
7.679403996756932749e-01
7.780967192641419228e-01
9.356062489131646842e-01
8.964780166269586958e-01
9.425005115547440138e-01
9.550570005771137350e-01
9.198363714122825829e-01
9.503254321542732308e-01
1.111138608353021029e+00
1.067550567210511447e+00
1.123796331528305714e+00
1.166903477632729391e+00
1.203905089218864299e+00
1.252245265857585110e+00
1.267733599924263599e+00
1.235579509815551535e+00
1.323703756665569387e+00
1.280263784544952932e+00
1.299741137489359266e+00
1.175778909586156606e+00
1.086754042723137470e+00
1.004829369498690728e+00
9.302886055316320624e-01
8.812255055538158466e-01
8.415247707054996917e-01
7.157782898044384723e-01
6.721136789717897519e-01
6.967394302105146542e-01
5.810509405247422654e-01
4.949214439288757150e-01
4.669883775360388345e-01
4.301543415593733211e-01
4.729500939870899812e-01
3.183100091340301252e-01
2.372162605221630471e-01
2.101172560432240655e-01
1.496037467693588641e-01
3.126405112915110751e-02
3.859462118793231811e-02
-9.436044126692082201e-02
-2.644917692586961078e-01
-3.042002510443587715e-01
-4.977786652808788292e-01
-5.362851568017861226e-01
-6.528635351873463000e-01
-8.375091806153595053e-01
-8.027501444420057641e-01
-8.527818101925506156e-01
-1.016832391163509541e+00
-1.038550021022882852e+00
-1.065842590756593378e+00
-1.120642895721079668e+00
-1.095602027669052791e+00
-1.136018390111923848e+00
-1.143118423557632823e+00
-1.104838607520430394e+00
-1.249290626610192190e+00
-1.207171178078708440e+00
-1.222518376671043461e+00
-1.301595409793254721e+00
-1.258181318937197535e+00
-1.349815974359791948e+00
-1.443359198485877348e+00
-1.411759698252406769e+00
-1.396684204626645220e+00
-1.471359920280148170e+00
-1.400812520485105406e+00
-1.378759428795718778e+00
-1.364346747102104906e+00
-1.266540381825448591e+00
-1.318678465191636118e+00
-1.211592231143604703e+00
-1.167156675238823604e+00
-1.021861283307111679e+00
-1.051797034757414595e+00
-9.100911850940792691e-01
-8.508554663985170574e-01
-6.957149148608809952e-01
-7.141417032685669630e-01
-6.593105523712514682e-01
-6.054314091230815764e-01
-6.647611870351728403e-01
-5.839483220032001265e-01
-5.574854947067247046e-01
-5.097539047273184076e-01
-4.122688412913053657e-01
-3.676689086408394536e-01
-2.815247988532211809e-01
-1.138924453338274884e-01
4.241073155800979128e-02
8.529093125384221152e-02
1.556921345806507873e-01
3.515418033000125564e-01
4.654469607911354001e-01
4.021502557568507608e-01
6.897307857074815862e-01
6.348645644050241454e-01
6.416536655833755542e-01
7.917179927792016292e-01
7.350683080915483281e-01
8.078410028015557964e-01
8.844281237386965033e-01
8.669252420420020533e-01
9.625825739206032017e-01
9.757625936846909820e-01
8.692371482676611860e-01
1.012613097358743941e+00
9.595133706739720214e-01
1.133123842786823321e+00
9.412553528036747830e-01
1.139644478839205277e+00
1.143935584153989327e+00
1.342407905922518907e+00
1.181871106805669314e+00
1.278020991013903540e+00
1.293348155584315817e+00
1.311287239944179506e+00
1.284596369776492608e+00
1.234812590668283194e+00
1.084047441969913095e+00
1.067868249891501753e+00
1.068986127691129440e+00
9.336851389081907149e-01
8.672001271760264585e-01
7.551303306928586201e-01
7.893968091572205470e-01
6.987681211094020073e-01
5.963632343807879765e-01
5.759907627353955117e-01
4.783755698543323831e-01
4.242946436853078929e-01
4.469239789275775143e-01
3.864498931757143207e-01
3.411354934590666299e-01
2.763048672198488154e-01
2.189292387977144205e-01
6.638230166488176542e-02
4.163351402291546460e-02
-4.636708958167873318e-02
-1.831542356668715010e-01
-3.149154563606674784e-01
-3.202923106688446153e-01
-4.422755109940378349e-01
-5.730878757242835464e-01
-6.491109984046047332e-01
-7.083771193509353914e-01
-7.982437800503936476e-01
-8.569251194589446730e-01
-9.425500890642455332e-01
-9.262382917855908060e-01
-9.578724476096839302e-01
-1.025448436125304896e+00
-1.156030044611434660e+00
-1.017606950968506618e+00
-1.149890964637356072e+00
-1.167007026889741894e+00
-1.158471038389928376e+00
-1.192067784861485791e+00
-1.168232663841674235e+00
-1.294262696628599940e+00
-1.353581986796766001e+00
-1.353934206800106566e+00
-1.390568820479670675e+00
-1.395449271825798476e+00
-1.449386080041352054e+00
-1.383546522004845736e+00
-1.424938278649219292e+00
-1.374574921753429102e+00
-1.372920587628642997e+00
-1.344439868849693243e+00
-1.309050540052198564e+00
-1.177166935671246639e+00
-1.175387846173804096e+00
-1.094989091389294567e+00
-8.849476963257312256e-01
-8.733943970266577761e-01
-8.618237935395213212e-01
-8.052437232016130819e-01
-7.781590846791478500e-01
-7.531594365193761131e-01
-7.038609937857313037e-01
-5.263036099934844669e-01
-6.423309699304496911e-01
-5.044753508416310872e-01
-4.018600341993606717e-01
-3.965110481139489940e-01
-3.909928784133531732e-01
-2.779814566691456434e-01
-1.775324864985695916e-01
-1.179594044781712564e-01
1.359700222904867278e-02
1.560173686252895597e-01
2.675047943008662110e-01
3.912007666893232982e-01
4.852055840775816309e-01
5.367761117111790048e-01
7.085951368257817906e-01
7.637377893363731518e-01
7.079019131673859322e-01
7.630227161455872542e-01
7.934178582758601994e-01
8.794253639745212014e-01
8.023219570773139075e-01
8.896575590657714860e-01
8.657303098299155009e-01
9.671146234592027380e-01
1.028763583379145530e+00
1.074592845798168828e+00
1.008737357102604815e+00
1.097720537194667889e+00
1.104670395749862921e+00
1.161310143440249076e+00
1.182440649600428495e+00
1.219041108065417767e+00
1.331740234063153228e+00
1.265087707195066580e+00
1.233179970760398980e+00
1.141030049954090853e+00
1.175621520517888374e+00
1.136110515129202136e+00
1.132463293587156805e+00
1.017684450629095405e+00
9.358552998737710293e-01
9.220964691905375599e-01
8.223743048457756721e-01
7.125026383415126174e-01
7.532602283596903092e-01
6.166645339032625905e-01
5.991316324973037233e-01
4.438390889319224208e-01
4.502885734467206302e-01
5.068237482502521152e-01
3.753352005725535401e-01
3.859000651041231689e-01
2.651031449104860327e-01
2.708381916288452040e-01
1.965797104007774299e-01
7.403811462117551589e-02
-3.631257117619227093e-02
-1.403682167707261952e-01
-2.440410219949746273e-01
-4.365023346489947942e-01
-4.012734202265575423e-01
-5.755488360440492723e-01
-6.649791273153177196e-01
-6.507657827302906206e-01
-8.238594813640049974e-01
-8.958687690266938786e-01
-8.681135142445168817e-01
-9.942987454530806124e-01
-1.096738295982525369e+00
-9.919739834340026707e-01
-1.112208849070354555e+00
-1.031718088885241968e+00
-1.071930016284955656e+00
-1.133471461917849421e+00
-1.132257792832094712e+00
-1.224686111542797384e+00
-1.217028682494543768e+00
-1.244805085682426649e+00
-1.350421524618160785e+00
-1.330922742759717892e+00
-1.443855274254151944e+00
-1.411446032349444879e+00
-1.435293502802586385e+00
-1.483944938450235229e+00
-1.339488826171733038e+00
-1.333795284738434006e+00
-1.397166359286493353e+00
-1.285090253973686591e+00
-1.222853988117071022e+00
-1.164852323844152382e+00
-1.152313666460473840e+00
-1.021998919780293669e+00
-9.791792456099400743e-01
-9.081572120343469612e-01
-8.405732150988751705e-01
-7.725221301037878963e-01
-7.248318476848577552e-01
-7.870679573435370724e-01
-6.879517278783037204e-01
-5.178259555416382387e-01
-5.820055527690241037e-01
-5.528835878078925958e-01
-5.042387825985004124e-01
-3.419317287550027173e-01
-3.610436536795753049e-01
-2.593646095853038291e-01
-9.717950280423974518e-02
-5.427471848889567352e-02
2.566175878605046062e-02
3.235608795387712178e-01
3.026107614982633809e-01
3.397626329092576780e-01
4.853108628428701721e-01
5.431590489046328463e-01
6.441342525108069150e-01
7.067585492760065646e-01
7.718871653480797734e-01
7.050021761724364344e-01
8.007018502988462183e-01
8.349731869750279811e-01
7.950452436242140264e-01
8.784516248071185807e-01
9.687813131878028061e-01
9.849779975307134672e-01
9.060478106602064541e-01
9.796907161015798726e-01
1.065671627140498678e+00
1.104983263762483459e+00
1.144381597074436208e+00
1.215408672488762720e+00
1.203322079382239451e+00
1.360360142377782244e+00
1.267113519075025341e+00
1.263465569317787862e+00
1.287325143195654942e+00
1.201024178081124161e+00
1.222968425877039245e+00
1.188804424467059251e+00
1.055042651714446444e+00
9.130330918860929401e-01
9.182690554978248931e-01
7.975383370034958563e-01
7.819654752989465551e-01
7.600577762826784545e-01
6.817694876051468844e-01
5.055971431413390782e-01
5.938198023533872716e-01
4.456690839593362985e-01
5.497185554035345367e-01
5.157283829658527718e-01
4.860168194770386751e-01
2.545834898229499266e-01
2.918056940786774023e-01
1.698606681801686780e-01
1.349636656330220896e-01
6.299726718212238230e-02
-7.092734924073976210e-02
-1.830222529494574535e-01
-3.009938019042279755e-01
-3.197161023893215770e-01
-4.023572746153926127e-01
-5.401889619450223057e-01
-6.845908396645791205e-01
-7.048343916674072451e-01
-8.576268196884100359e-01
-9.384328456177222222e-01
-8.931719256579875310e-01
-1.064655009342750924e+00
-9.362576423484382238e-01
-1.043057607764928063e+00
-1.000893781714428332e+00
-1.022921172714476468e+00
-1.114598962208567912e+00
-1.114331049423989084e+00
-1.206918811195340613e+00
-1.175136540152539988e+00
-1.193159713508940678e+00
-1.202362189445398410e+00
-1.350365525206929984e+00
-1.261612117602605831e+00
-1.420432030033248250e+00
-1.474019394583218512e+00
-1.551426228696783038e+00
-1.410976971811676917e+00
-1.408393769588669464e+00
-1.342604292933694321e+00
-1.424906179667571271e+00
-1.386005356717656234e+00
-1.271593458166801804e+00
-1.188215344136127172e+00
-1.144970714254168742e+00
-1.123505578062286903e+00
-9.256806977126516012e-01
-8.160001243007043437e-01
-8.439152206879437790e-01
-7.679532159958973869e-01
-7.306312118452974458e-01
-6.932252013604499608e-01
-5.908846282417651308e-01
-5.945017505827331350e-01
-6.714330399146715145e-01
-5.509486384774734402e-01
-3.716580186170624356e-01
-4.244438621834359937e-01
-2.957802301296911240e-01
-1.787847404693461151e-01
-1.837639817012176879e-01
2.651386018450927612e-02
7.268034939758685753e-02
2.188346376915507596e-01
2.634306866910631206e-01
3.037868526250409040e-01
5.046394038137946847e-01
5.334771426743460943e-01
6.958731768857222555e-01
7.440093687320595839e-01
7.306821110421150012e-01
7.576800644068868440e-01
8.111811384644709300e-01
8.935529472666283723e-01
8.758020454535879740e-01
9.953572366450976761e-01
8.792297960698830517e-01
1.038455550008474448e+00
9.832187175585179739e-01
9.930049072829593149e-01
1.023638523012713408e+00
1.170795337775565548e+00
1.156494555779326694e+00
1.257698464794590576e+00
1.195153480437889604e+00
1.236387111361045843e+00
1.254712848928439373e+00
1.320364315990623760e+00
1.243766831508267279e+00
1.259122691804381855e+00
1.222252320653513413e+00
1.214600087447626375e+00
1.075141720917229149e+00
1.093051694037738386e+00
1.020227547700819359e+00
8.084996584103438799e-01
7.897530324717191297e-01
8.018703570866990704e-01
6.579972156045267306e-01
6.372541442633810060e-01
5.430912594355462586e-01
5.466218696720056558e-01
5.105587608855086668e-01
4.467260145036867636e-01
3.526789426072393652e-01
3.460070826797729260e-01
3.145066762202498589e-01
2.368212250494132198e-01
1.879834719647955066e-01
1.284750395985038707e-01
5.122993091919404718e-02
-1.545933197549679838e-01
-2.569160715203702150e-01
-3.027604498432503455e-01
-4.698685243676088419e-01
-5.917858526595400903e-01
-6.893626637095734422e-01
-7.609029024121627405e-01
-8.733194849295783380e-01
-8.423016841607992022e-01
-8.555919604924736577e-01
-9.699869637559573876e-01
-9.605330047576983166e-01
-1.025283196424038978e+00
-1.022661325521543096e+00
-1.069808516968571821e+00
-1.017107324969596327e+00
-1.089600812324911239e+00
-1.155636707610032676e+00
-1.125997163033259030e+00
-1.277716108069468337e+00
-1.176359817768405369e+00
-1.185551671708882537e+00
-1.363742250435403536e+00
-1.395556865547803671e+00
-1.502980654840844865e+00
-1.382760090675439590e+00
-1.419276531032417354e+00
-1.436251766804670815e+00
-1.391637157585846829e+00
-1.276306453869366919e+00
-1.372052680129922875e+00
-1.218602371776022153e+00
-1.245598287285709649e+00
-1.125112396966048145e+00
-1.091992323430830192e+00
-9.367259320581156068e-01
-8.013416339051848691e-01
-8.305208831087391719e-01
-7.378099775775167624e-01
-7.003825729640212883e-01
-7.374438042164858098e-01
-5.542023761069502230e-01
-5.822932068594735000e-01
-6.019100159168802033e-01
-4.648162349729402232e-01
-4.589197750326258207e-01
-4.100581531244464895e-01
-3.276287024447406271e-01
-2.739823750871479002e-01
-1.052756493979540020e-01
-1.284776598893196120e-02
7.446563886880031014e-03
2.120240361179371036e-01
1.952053366602375939e-01
4.859385039474183321e-01
4.987652263870658298e-01
6.229446466757082579e-01
6.510214920685287732e-01
7.266149670809821659e-01
7.559658588578279659e-01
7.640330649705229238e-01
9.512481425673386948e-01
9.701433830207357722e-01
9.232854791560199947e-01
9.915080588427953590e-01
8.978444853393855452e-01
9.310336119367850216e-01
9.727033804010475349e-01
1.027679779450278996e+00
1.049629914186914759e+00
1.073328816673710051e+00
1.096375986896428678e+00
1.237875456401713592e+00
1.283696153461355571e+00
1.225064436914319543e+00
1.390385503958769808e+00
1.317798612925209056e+00
1.307250269320356706e+00
1.320417386822751116e+00
1.250652760528903285e+00
1.136266728926345726e+00
9.972193374395024179e-01
1.081543123356734748e+00
1.011113760172813070e+00
8.421144057315869125e-01
8.141301220962282592e-01
7.279748478640788445e-01
7.518978015074762045e-01
6.094171867619282423e-01
6.110003291477715814e-01
5.058346922008107871e-01
5.591600530600315810e-01
4.299153268410529916e-01
3.691494480525425725e-01
3.764020864324527649e-01
2.943823537279219860e-01
2.911951883646722306e-01
1.941550317330487940e-01
-3.978304666480589336e-02
3.749027524090366853e-02
-9.651081219726055649e-02
-2.642597728564610726e-01
-3.415531179739965673e-01
-5.546916776055044185e-01
-5.829957013432975899e-01
-6.455009934874690325e-01
-7.648258201406474832e-01
-8.111312698307002744e-01
-7.938314494404538069e-01
-8.676513315645481006e-01
-9.854033084153419608e-01
-9.817199871867252625e-01
-1.022791188662833362e+00
-1.085916244444139478e+00
-1.014502229310699777e+00
-1.119620872005143930e+00
-1.174598272488610373e+00
-1.039452663835380264e+00
-1.148348090424196055e+00
-1.165560440660100339e+00
-1.201732388688892206e+00
-1.261227941722123491e+00
-1.348518808951859826e+00
-1.351528860659962916e+00
-1.423944212400967135e+00
-1.439921231377796929e+00
-1.342666674745689015e+00
-1.383979433169050921e+00
-1.349835351642560077e+00
-1.321008744630119525e+00
-1.322171326172294270e+00
-1.207528282191396629e+00
-1.125359086664101893e+00
-1.069760387680787517e+00
-9.240020436815539195e-01
-9.792913188239439348e-01
-9.554540579246808552e-01
-7.486644016272533397e-01
-7.368572958626827818e-01
-7.497508812707285308e-01
-5.665406684181185648e-01
-6.680073420439199827e-01
-5.813511768692264381e-01
-5.114334702954368428e-01
-4.777854022621321195e-01
-4.325873262254878449e-01
-4.159498611948860280e-01
-3.384430925416219149e-01
-2.795756303164567136e-01
-8.085789020808570315e-02
-6.626110431186192640e-02
1.192251648964321176e-01
1.240549338528218748e-01
4.404404812777798495e-01
5.267026132856427179e-01
7.341189959914155017e-01
8.772993979880070459e-01
9.760060164529524851e-01
1.195527038480830972e+00
1.155492442347705095e+00
1.251551202035070753e+00
1.223429985576319545e+00
1.318556162063667880e+00
1.386892921710404458e+00
1.402061378445171869e+00
1.453294119857858391e+00
1.390986937274784285e+00
1.484394436407000528e+00
1.546553937888861086e+00
1.464622129498537095e+00
1.460313544110031447e+00
1.555238660819842078e+00
1.521506469063795386e+00
1.485988665202272463e+00
1.478473391572004081e+00
1.392392163821549511e+00
1.316489378753568973e+00
1.252288248769424905e+00
1.260340836910954554e+00
1.091858007080939164e+00
9.615244284586723644e-01
9.145693790454365590e-01
7.726319953657585504e-01
6.508934519756840453e-01
4.897809559853094630e-01
3.436306186751239000e-01
2.977643054580978998e-01
1.516628335652545068e-01
1.560305037752039437e-01
1.302761028941658017e-01
7.543078799551383717e-02
1.622163110830759924e-02
9.937211274216201096e-02
-6.962616629314705152e-02
3.691975572674777162e-02
-4.001028727747302227e-02
-2.001062883617565902e-04
-2.733260203529111476e-02
-1.564614105169500058e-01
-1.234242974444345747e-01
-6.280937567378037933e-02
-2.005252478450416376e-01
-4.220737566406653762e-01
-4.465193484047672579e-01
-5.209206031359694400e-01
-5.860543783856883016e-01
-7.590229266927950302e-01
-7.964038910076255418e-01
-8.169122642077583096e-01
-9.303006594155724951e-01
-9.143374681602599585e-01
-9.865492548559251507e-01
-9.942881082599180909e-01
-9.224872413202795940e-01
-9.757865131929951419e-01
-1.099066318350910620e+00
-1.097731325379034395e+00
-1.059822378189163361e+00
-1.118129080686728782e+00
-1.195327978929197510e+00
-1.209446331371154981e+00
-1.371073177527891263e+00
-1.333651294761369899e+00
-1.373558897237687093e+00
-1.396458968555508440e+00
-1.356652534866871651e+00
-1.352853246481842797e+00
-1.441005988238429181e+00
-1.277201982608429764e+00
-1.372955925098598318e+00
-1.244703210573187224e+00
-1.193428466730809490e+00
-1.108710046623842649e+00
-1.047654854942130065e+00
-9.392751300257397018e-01
-9.771625637600711567e-01
-7.891762987486045100e-01
-9.127107683705493191e-01
-7.954133355290806673e-01
-6.470498338035912678e-01
-6.082403490345408281e-01
-6.227912408242129993e-01
-5.592184114168884390e-01
-4.922782943516639809e-01
-5.018283426061571628e-01
-3.572281701643504892e-01
-3.400196633290135106e-01
-3.534654654483369574e-01
-1.933423957443983765e-01
-1.502126893659406215e-01
5.043971126018231832e-02
9.850089531939232312e-02
2.494020268239125482e-01
3.008543539912319487e-01
4.058226487156809115e-01
6.287933503277359781e-01
6.220036304358753654e-01
7.198503394214058604e-01
7.814018690955203406e-01
6.950476792046201835e-01
8.203091117089353901e-01
8.252936442192958522e-01
9.804944840471341294e-01
8.981276512858898942e-01
9.521461085005962222e-01
9.868950131037409479e-01
9.869196095889331000e-01
1.059533107398071827e+00
1.003463557303428066e+00
1.127979391413494126e+00
1.191804447732612848e+00
1.193178138384109577e+00
1.234716024107529675e+00
1.300770249865671024e+00
1.336204095247367274e+00
1.297102228760157017e+00
1.299582956595315197e+00
1.241055541015599450e+00
1.327926983146550777e+00
1.186076302774115243e+00
1.055755053065086990e+00
1.129969703694434724e+00
8.949701186634907435e-01
9.596373716841304358e-01
9.468556351773025348e-01
7.647555784059556494e-01
7.867083076612653159e-01
7.690655316412499110e-01
7.990282173693534773e-01
5.970410394898716389e-01
5.876729507871838454e-01
5.189843217924448027e-01
5.140898741894139867e-01
4.092361348575582758e-01
4.364668094449264957e-01
3.034633258853991489e-01
2.551512788272489729e-01
2.237907538955069553e-01
1.450487210465042920e-01
-3.143308250952724092e-02
-8.730774462516621703e-02
-2.426135520242083121e-01
-3.043612566729920199e-01
-5.131391078024125640e-01
-5.628009374174474111e-01
-5.956919386799482963e-01
-6.719291996239098452e-01
-7.343054537216435751e-01
-6.955215857852045103e-01
-8.834630180927038889e-01
-9.206046035824440033e-01
-8.942987095534178366e-01
-9.136634003221545397e-01
-9.583415147973350923e-01
-9.557252499101618337e-01
-1.097075342000685350e+00
-1.073891867638006037e+00
-1.183104489260600634e+00
-1.184960996437364189e+00
-1.067830278724229975e+00
-1.240497580556739532e+00
-1.286303029175034141e+00
-1.276197356559749307e+00
-1.391147678802903798e+00
-1.412392075976651729e+00
-1.348685453640981802e+00
-1.447812487713374008e+00
-1.424780991299086086e+00
-1.481904104920185983e+00
-1.372090215104629252e+00
-1.209233055630846154e+00
-1.215067605293404407e+00
-1.121968794256674062e+00
-9.886936900708606091e-01
-1.018044720116760393e+00
-9.686916856499819817e-01
-8.552914440783769834e-01
-8.205076925110063035e-01
-6.662937625119258467e-01
-6.517383149455251434e-01
-7.037924570567644089e-01
-7.041382181131445872e-01
-5.779152449266681257e-01
-4.278843112445576136e-01
-5.094411781828749319e-01
-4.111953733972923963e-01
-3.596064559985707176e-01
-1.919627705706080656e-01
-1.186534736859869571e-01
-2.588312666137895790e-02
7.999983269704688538e-02
5.605878497531319171e-02
2.641467476010740945e-01
2.660790209099030412e-01
4.252105823388048211e-01
5.232182306337261890e-01
6.672582356468124143e-01
